Sample:	'wa-1(EM)
File name:	100.FDS
Run Date:	'17:25:45, 07/11/2024
Operator:	WXH
Comment:	'

Instrument
Model:	F-4600 FL Spectrophotometer
Serial Number:	3080-002
ROM Version:	5J24000 02

Instrument Parameters
Measurement type:	Wavelength scan
Scan mode:	Emission
Data mode:	Fluorescence
EX WL:	460.0 nm
EM  Start WL:	480.0 nm
EM  End WL:	780.0 nm
Scan speed:	1200 nm/min
Delay:	0.0 s
EX Slit:	2.5 nm
EM Slit:	2.5 nm
PMT Voltage:	600 V
Response:	Auto 
Corrected spectra:	Off
Shutter control:	On

Peak integration
Integration method:	Rectangular
Sensitivity:	1
Threshold:	1.000

Peaks
No.	Valley(nm)	Valley(Data)
1	483.6	15.09
2	508.2	255.9
3	511.2	280.6
4	515.6	287.8
5	517.8	291.0
6	531.4	199.1
7	545.6	137.2
8	551.4	118.3
9	555.6	103.7
10	562.6	73.72
11	566.0	74.34
12	568.4	62.71
13	577.2	46.22
14	580.6	41.97
15	583.6	36.21
16	586.2	36.83
17	588.0	30.61
18	591.4	33.98
19	596.0	22.75
20	602.0	23.15
21	606.8	14.38
22	609.6	17.52
23	617.2	14.65
24	619.6	10.55
25	623.0	13.17
26	627.4	10.06
27	631.4	8.635
28	633.8	9.982
29	636.8	8.876
30	644.4	9.690
31	647.6	7.546
32	649.4	10.98
33	652.6	10.30
34	656.6	6.478
35	661.2	7.686
36	663.4	7.670
37	668.2	7.597
38	670.8	6.728
39	672.4	8.238
40	676.2	7.281
41	678.4	6.294
42	685.4	7.748
43	688.2	5.118
44	691.2	7.854
45	693.4	4.554
46	696.6	8.251
47	701.8	6.206
48	704.6	4.688
49	706.8	6.411
50	710.2	5.578
51	715.6	5.983
52	721.0	5.234
53	723.6	6.873
54	726.8	5.966
55	730.2	8.235
56	735.2	6.534
57	740.0	5.631
58	745.0	7.405
59	748.6	5.600
60	755.8	3.228
61	758.0	4.589
62	762.8	5.760
63	767.0	5.330
64	768.6	6.426
65	773.8	6.891
66	776.4	7.494
67	780.0	7.526

Data Points
nm	Data
480.0	6.922
481.0	18.33
482.0	16.88
483.0	15.64
484.0	19.81
485.0	25.80
486.0	28.40
487.0	24.21
488.0	32.64
489.0	34.66
490.0	40.05
491.0	44.66
492.0	47.45
493.0	63.92
494.0	69.20
495.0	77.77
496.0	90.42
497.0	91.71
498.0	128.2
499.0	128.1
500.0	147.8
501.0	160.6
502.0	185.9
503.0	191.9
504.0	213.5
505.0	247.9
506.0	254.2
507.0	265.7
508.0	260.2
509.0	282.9
510.0	287.2
511.0	300.2
512.0	289.1
513.0	313.0
514.0	296.6
515.0	293.4
516.0	291.3
517.0	304.6
518.0	296.0
519.0	293.7
520.0	294.1
521.0	276.2
522.0	275.9
523.0	272.7
524.0	265.6
525.0	247.9
526.0	246.2
527.0	237.0
528.0	246.1
529.0	234.0
530.0	220.8
531.0	212.3
532.0	220.7
533.0	220.6
534.0	227.6
535.0	208.3
536.0	202.5
537.0	199.1
538.0	189.1
539.0	183.4
540.0	187.5
541.0	182.0
542.0	162.9
543.0	161.2
544.0	162.7
545.0	152.9
546.0	154.8
547.0	151.8
548.0	140.6
549.0	134.9
550.0	126.8
551.0	126.1
552.0	127.6
553.0	119.8
554.0	118.4
555.0	106.5
556.0	106.3
557.0	113.5
558.0	102.3
559.0	98.43
560.0	97.84
561.0	81.60
562.0	80.26
563.0	84.07
564.0	83.26
565.0	78.87
566.0	74.34
567.0	70.90
568.0	69.04
569.0	65.25
570.0	68.23
571.0	71.94
572.0	63.83
573.0	62.88
574.0	56.43
575.0	56.80
576.0	47.09
577.0	48.58
578.0	48.62
579.0	50.90
580.0	44.83
581.0	57.34
582.0	48.52
583.0	41.74
584.0	37.36
585.0	41.03
586.0	38.03
587.0	43.03
588.0	30.61
589.0	35.37
590.0	37.05
591.0	38.87
592.0	38.81
593.0	35.56
594.0	32.24
595.0	30.37
596.0	22.75
597.0	24.72
598.0	30.27
599.0	29.63
600.0	28.50
601.0	27.15
602.0	23.15
603.0	28.63
604.0	25.82
605.0	21.84
606.0	23.30
607.0	17.39
608.0	24.91
609.0	20.76
610.0	21.46
611.0	22.40
612.0	24.10
613.0	21.94
614.0	18.53
615.0	17.95
616.0	16.58
617.0	15.52
618.0	17.51
619.0	18.51
620.0	16.75
621.0	17.03
622.0	18.03
623.0	13.17
624.0	21.36
625.0	16.25
626.0	13.94
627.0	11.30
628.0	14.77
629.0	14.58
630.0	12.89
631.0	10.84
632.0	11.45
633.0	14.25
634.0	11.82
635.0	14.52
636.0	9.538
637.0	10.16
638.0	12.33
639.0	13.46
640.0	15.81
641.0	15.02
642.0	13.67
643.0	10.39
644.0	10.43
645.0	11.24
646.0	10.04
647.0	11.43
648.0	12.11
649.0	13.05
650.0	12.38
651.0	12.43
652.0	10.90
653.0	13.04
654.0	12.01
655.0	10.17
656.0	8.301
657.0	11.06
658.0	9.761
659.0	11.94
660.0	9.678
661.0	7.917
662.0	10.18
663.0	10.25
664.0	9.647
665.0	11.06
666.0	12.12
667.0	9.024
668.0	9.675
669.0	9.323
670.0	8.673
671.0	6.778
672.0	10.24
673.0	9.194
674.0	10.86
675.0	9.995
676.0	7.550
677.0	7.882
678.0	10.01
679.0	8.611
680.0	11.71
681.0	10.06
682.0	11.56
683.0	13.30
684.0	10.38
685.0	10.75
686.0	8.932
687.0	9.422
688.0	6.905
689.0	5.992
690.0	10.99
691.0	8.707
692.0	9.636
693.0	7.511
694.0	7.446
695.0	10.87
696.0	11.26
697.0	9.951
698.0	10.79
699.0	10.95
700.0	10.52
701.0	8.522
702.0	7.863
703.0	9.646
704.0	9.247
705.0	8.568
706.0	9.926
707.0	8.549
708.0	8.260
709.0	8.101
710.0	6.099
711.0	8.544
712.0	7.387
713.0	10.37
714.0	11.32
715.0	7.674
716.0	8.989
717.0	5.995
718.0	11.64
719.0	10.55
720.0	9.986
721.0	5.234
722.0	8.217
723.0	7.954
724.0	8.169
725.0	10.25
726.0	7.787
727.0	7.539
728.0	11.50
729.0	12.77
730.0	11.01
731.0	11.11
732.0	8.711
733.0	8.877
734.0	8.377
735.0	7.851
736.0	12.43
737.0	9.897
738.0	9.650
739.0	8.350
740.0	5.631
741.0	12.95
742.0	9.929
743.0	10.06
744.0	8.736
745.0	7.405
746.0	11.52
747.0	8.327
748.0	6.510
749.0	8.777
750.0	10.96
751.0	10.10
752.0	8.691
753.0	6.625
754.0	7.409
755.0	7.069
756.0	6.026
757.0	6.134
758.0	4.589
759.0	8.709
760.0	8.153
761.0	9.748
762.0	7.970
763.0	7.387
764.0	7.141
765.0	9.247
766.0	8.138
767.0	5.330
768.0	9.924
769.0	6.629
770.0	9.793
771.0	12.09
772.0	9.382
773.0	7.539
774.0	8.728
775.0	9.377
776.0	7.647
777.0	8.510
778.0	7.393
779.0	9.195
780.0	7.526

Sample:	'wa-2(EM)
File name:	100.FDS
Run Date:	'17:26:15, 07/11/2024
Operator:	WXH
Comment:	'

Instrument
Model:	F-4600 FL Spectrophotometer
Serial Number:	3080-002
ROM Version:	5J24000 02

Instrument Parameters
Measurement type:	Wavelength scan
Scan mode:	Emission
Data mode:	Fluorescence
EX WL:	460.0 nm
EM  Start WL:	480.0 nm
EM  End WL:	780.0 nm
Scan speed:	1200 nm/min
Delay:	0.0 s
EX Slit:	2.5 nm
EM Slit:	2.5 nm
PMT Voltage:	600 V
Response:	Auto 
Corrected spectra:	Off
Shutter control:	On

Peak integration
Integration method:	Rectangular
Sensitivity:	1
Threshold:	1.000

Peaks
No.	Valley(nm)	Valley(Data)
1	516.6	282.4
2	517.8	285.3
3	526.0	227.3
4	527.4	220.8
5	533.2	212.3
6	535.8	188.7
7	539.8	172.4
8	543.2	155.6
9	547.8	127.3
10	550.6	119.7
11	558.8	89.42
12	562.0	85.77
13	565.0	69.57
14	569.6	63.57
15	576.4	46.53
16	581.2	40.71
17	583.4	38.43
18	591.2	26.91
19	595.4	27.86
20	602.0	20.02
21	603.8	20.82
22	606.6	21.98
23	610.2	19.53
24	615.2	13.15
25	619.4	15.31
26	623.0	12.90
27	625.0	12.25
28	628.0	11.18
29	631.0	10.81
30	633.2	12.47
31	637.4	10.94
32	642.0	8.707
33	645.0	11.16
34	647.0	5.760
35	648.4	8.106
36	651.0	11.46
37	653.2	6.241
38	657.6	8.658
39	660.8	9.013
40	665.2	7.490
41	668.4	5.095
42	674.4	6.896
43	676.2	5.592
44	681.8	7.151
45	684.0	7.046
46	689.6	5.547
47	692.2	5.003
48	695.0	8.107
49	697.8	5.892
50	703.2	6.807
51	707.0	8.635
52	710.2	5.277
53	713.6	6.469
54	717.2	5.917
55	719.6	5.507
56	723.0	6.814
57	726.8	7.402
58	729.8	5.768
59	733.0	6.782
60	737.2	5.371
61	742.2	5.679
62	746.6	7.244
63	751.4	6.866
64	753.0	6.034
65	759.0	8.521
66	762.6	6.741
67	767.6	5.575
68	770.2	6.775
69	774.6	4.755
70	780.0	7.425

Data Points
nm	Data
480.0	16.98
481.0	11.61
482.0	14.54
483.0	15.65
484.0	20.62
485.0	23.30
486.0	21.35
487.0	27.86
488.0	26.01
489.0	36.38
490.0	40.76
491.0	40.26
492.0	46.57
493.0	62.17
494.0	72.35
495.0	78.41
496.0	95.67
497.0	105.4
498.0	119.1
499.0	127.1
500.0	139.3
501.0	152.7
502.0	180.5
503.0	199.9
504.0	222.8
505.0	238.2
506.0	249.6
507.0	279.7
508.0	281.2
509.0	293.2
510.0	272.8
511.0	289.6
512.0	305.1
513.0	300.0
514.0	299.6
515.0	302.8
516.0	288.1
517.0	291.3
518.0	286.5
519.0	306.5
520.0	288.3
521.0	281.2
522.0	259.7
523.0	267.7
524.0	257.7
525.0	248.5
526.0	227.3
527.0	243.2
528.0	249.6
529.0	238.4
530.0	236.7
531.0	228.1
532.0	228.7
533.0	217.8
534.0	221.0
535.0	225.0
536.0	199.1
537.0	207.6
538.0	195.0
539.0	186.1
540.0	180.5
541.0	191.0
542.0	171.6
543.0	160.4
544.0	168.3
545.0	160.4
546.0	151.4
547.0	129.3
548.0	138.1
549.0	142.1
550.0	128.5
551.0	120.8
552.0	126.4
553.0	118.5
554.0	121.0
555.0	126.2
556.0	105.3
557.0	98.67
558.0	99.16
559.0	94.96
560.0	96.73
561.0	96.61
562.0	85.77
563.0	88.22
564.0	76.64
565.0	69.57
566.0	77.43
567.0	80.76
568.0	65.26
569.0	65.24
570.0	71.33
571.0	76.65
572.0	61.05
573.0	62.47
574.0	60.97
575.0	63.77
576.0	48.56
577.0	49.55
578.0	52.89
579.0	52.97
580.0	49.67
581.0	44.70
582.0	43.02
583.0	43.93
584.0	38.61
585.0	43.78
586.0	44.24
587.0	41.64
588.0	40.58
589.0	35.04
590.0	35.37
591.0	31.03
592.0	28.50
593.0	34.52
594.0	28.34
595.0	29.98
596.0	30.43
597.0	31.99
598.0	31.03
599.0	24.49
600.0	25.46
601.0	23.71
602.0	20.02
603.0	22.53
604.0	21.21
605.0	20.67
606.0	27.99
607.0	24.02
608.0	27.03
609.0	25.87
610.0	19.91
611.0	24.23
612.0	20.13
613.0	16.37
614.0	17.42
615.0	15.62
616.0	17.49
617.0	18.24
618.0	19.44
619.0	18.58
620.0	17.17
621.0	18.14
622.0	17.62
623.0	12.90
624.0	15.64
625.0	12.25
626.0	14.17
627.0	13.73
628.0	11.18
629.0	18.53
630.0	11.31
631.0	10.81
632.0	17.02
633.0	14.14
634.0	17.41
635.0	18.05
636.0	13.74
637.0	12.14
638.0	10.66
639.0	11.86
640.0	11.75
641.0	14.71
642.0	8.707
643.0	15.70
644.0	14.04
645.0	11.16
646.0	11.37
647.0	5.760
648.0	11.21
649.0	10.90
650.0	12.57
651.0	11.46
652.0	12.92
653.0	8.978
654.0	13.51
655.0	10.74
656.0	10.97
657.0	9.110
658.0	10.38
659.0	9.943
660.0	10.80
661.0	9.967
662.0	12.46
663.0	11.40
664.0	8.112
665.0	9.145
666.0	8.252
667.0	10.86
668.0	7.084
669.0	10.97
670.0	9.359
671.0	9.316
672.0	7.875
673.0	6.971
674.0	7.551
675.0	8.257
676.0	7.765
677.0	10.59
678.0	8.261
679.0	10.20
680.0	11.64
681.0	8.651
682.0	9.352
683.0	6.642
684.0	7.046
685.0	9.406
686.0	10.40
687.0	10.34
688.0	9.638
689.0	6.046
690.0	7.331
691.0	9.964
692.0	6.811
693.0	11.12
694.0	9.187
695.0	8.107
696.0	9.466
697.0	8.475
698.0	6.167
699.0	9.362
700.0	9.017
701.0	11.47
702.0	10.74
703.0	8.151
704.0	9.222
705.0	9.819
706.0	15.03
707.0	8.635
708.0	9.133
709.0	11.38
710.0	6.376
711.0	7.190
712.0	10.37
713.0	8.149
714.0	7.767
715.0	13.59
716.0	10.39
717.0	6.473
718.0	6.790
719.0	7.187
720.0	7.729
721.0	6.939
722.0	8.978
723.0	6.814
724.0	9.430
725.0	11.76
726.0	11.15
727.0	9.306
728.0	9.675
729.0	9.646
730.0	5.773
731.0	7.715
732.0	10.64
733.0	6.782
734.0	10.71
735.0	8.427
736.0	9.388
737.0	6.787
738.0	12.01
739.0	10.07
740.0	9.529
741.0	8.668
742.0	6.033
743.0	7.087
744.0	9.846
745.0	10.79
746.0	8.269
747.0	8.761
748.0	8.009
749.0	9.639
750.0	5.564
751.0	7.576
752.0	8.072
753.0	6.034
754.0	8.450
755.0	10.35
756.0	12.56
757.0	9.344
758.0	10.20
759.0	8.521
760.0	12.15
761.0	12.43
762.0	9.953
763.0	7.482
764.0	5.686
765.0	10.61
766.0	8.388
767.0	7.552
768.0	8.801
769.0	11.75
770.0	8.536
771.0	7.926
772.0	6.448
773.0	6.835
774.0	7.594
775.0	6.288
776.0	10.51
777.0	6.587
778.0	8.558
779.0	6.978
780.0	7.425

Sample:	'wa-3(EM)
File name:	100.FDS
Run Date:	'17:26:45, 07/11/2024
Operator:	WXH
Comment:	'

Instrument
Model:	F-4600 FL Spectrophotometer
Serial Number:	3080-002
ROM Version:	5J24000 02

Instrument Parameters
Measurement type:	Wavelength scan
Scan mode:	Emission
Data mode:	Fluorescence
EX WL:	460.0 nm
EM  Start WL:	480.0 nm
EM  End WL:	780.0 nm
Scan speed:	1200 nm/min
Delay:	0.0 s
EX Slit:	2.5 nm
EM Slit:	2.5 nm
PMT Voltage:	600 V
Response:	Auto 
Corrected spectra:	Off
Shutter control:	On

Peak integration
Integration method:	Rectangular
Sensitivity:	1
Threshold:	1.000

Peaks
No.	Valley(nm)	Valley(Data)
1	494.8	64.02
2	497.2	94.99
3	515.8	275.8
4	519.6	265.2
5	524.0	250.1
6	530.2	213.8
7	537.4	180.5
8	545.2	141.0
9	550.0	115.9
10	553.0	110.3
11	556.2	92.83
12	558.6	87.98
13	564.0	74.02
14	566.2	68.34
15	572.4	54.84
16	579.0	43.08
17	582.2	43.04
18	584.8	36.86
19	589.4	30.63
20	591.8	33.56
21	597.0	20.86
22	600.8	23.89
23	602.2	19.40
24	606.0	19.45
25	607.2	20.24
26	609.4	18.87
27	610.8	18.41
28	615.6	12.42
29	617.0	14.27
30	621.8	14.50
31	623.2	13.27
32	625.6	9.355
33	628.2	11.09
34	634.0	9.669
35	635.4	9.047
36	637.2	11.00
37	640.6	7.896
38	645.0	8.698
39	646.6	8.031
40	649.2	8.105
41	652.4	7.223
42	654.2	9.797
43	656.8	9.171
44	658.0	8.184
45	662.2	6.834
46	665.6	5.950
47	668.4	11.20
48	670.8	8.456
49	674.0	7.247
50	677.2	6.562
51	680.8	10.04
52	684.6	4.857
53	687.0	6.380
54	693.6	7.061
55	695.6	7.077
56	697.4	5.930
57	700.0	6.484
58	704.2	8.105
59	706.6	7.019
60	708.0	9.345
61	710.4	7.358
62	713.0	6.881
63	717.8	6.451
64	719.2	6.320
65	722.6	6.113
66	727.4	7.276
67	729.2	6.095
68	731.0	7.962
69	734.6	9.098
70	737.2	6.356
71	743.6	4.772
72	748.4	4.476
73	751.0	5.014
74	753.0	5.546
75	755.2	4.895
76	758.0	6.963
77	759.6	6.083
78	764.8	5.484
79	768.4	7.615
80	772.2	6.545
81	774.6	6.193
82	776.4	6.123

Data Points
nm	Data
480.0	15.81
481.0	12.68
482.0	14.61
483.0	15.01
484.0	18.19
485.0	22.75
486.0	23.55
487.0	27.62
488.0	29.61
489.0	28.84
490.0	38.80
491.0	44.05
492.0	52.61
493.0	59.37
494.0	68.60
495.0	70.70
496.0	98.01
497.0	95.00
498.0	96.28
499.0	138.6
500.0	170.6
501.0	165.7
502.0	181.8
503.0	186.0
504.0	209.5
505.0	242.6
506.0	253.8
507.0	262.1
508.0	261.2
509.0	269.1
510.0	285.2
511.0	287.1
512.0	303.8
513.0	304.6
514.0	308.8
515.0	300.7
516.0	283.6
517.0	315.5
518.0	307.4
519.0	278.9
520.0	284.9
521.0	287.3
522.0	274.6
523.0	276.7
524.0	250.1
525.0	266.0
526.0	250.1
527.0	238.2
528.0	250.7
529.0	231.1
530.0	217.3
531.0	220.8
532.0	232.3
533.0	220.4
534.0	221.8
535.0	211.8
536.0	200.3
537.0	185.7
538.0	183.6
539.0	178.4
540.0	185.6
541.0	183.1
542.0	176.5
543.0	158.4
544.0	148.1
545.0	147.3
546.0	153.1
547.0	141.2
548.0	146.4
549.0	123.4
550.0	115.9
551.0	122.9
552.0	119.1
553.0	110.3
554.0	120.1
555.0	105.8
556.0	95.55
557.0	100.5
558.0	95.16
559.0	88.62
560.0	95.12
561.0	96.46
562.0	92.03
563.0	82.62
564.0	74.02
565.0	81.00
566.0	71.66
567.0	79.46
568.0	74.62
569.0	68.85
570.0	65.32
571.0	67.67
572.0	56.86
573.0	57.26
574.0	62.06
575.0	54.61
576.0	52.38
577.0	60.42
578.0	49.42
579.0	43.08
580.0	48.30
581.0	45.31
582.0	45.03
583.0	46.25
584.0	42.55
585.0	38.14
586.0	43.23
587.0	40.38
588.0	39.32
589.0	34.01
590.0	32.40
591.0	39.40
592.0	34.29
593.0	35.01
594.0	36.58
595.0	26.10
596.0	27.47
597.0	20.86
598.0	27.95
599.0	24.60
600.0	24.47
601.0	28.75
602.0	22.01
603.0	24.88
604.0	22.06
605.0	21.54
606.0	19.45
607.0	20.77
608.0	20.63
609.0	22.25
610.0	26.81
611.0	21.75
612.0	19.18
613.0	15.56
614.0	14.95
615.0	14.03
616.0	15.20
617.0	14.27
618.0	16.06
619.0	18.77
620.0	14.97
621.0	13.42
622.0	14.63
623.0	15.98
624.0	17.18
625.0	14.66
626.0	11.90
627.0	13.20
628.0	11.85
629.0	14.23
630.0	13.80
631.0	17.61
632.0	16.38
633.0	12.45
634.0	9.669
635.0	12.66
636.0	13.73
637.0	11.33
638.0	15.58
639.0	13.76
640.0	14.37
641.0	11.75
642.0	12.90
643.0	14.99
644.0	11.01
645.0	8.698
646.0	14.15
647.0	11.64
648.0	16.60
649.0	8.910
650.0	10.16
651.0	11.31
652.0	12.85
653.0	10.12
654.0	14.28
655.0	10.54
656.0	10.70
657.0	12.02
658.0	8.184
659.0	15.19
660.0	10.52
661.0	8.741
662.0	8.553
663.0	8.663
664.0	10.67
665.0	11.31
666.0	11.63
667.0	15.71
668.0	13.74
669.0	17.31
670.0	11.66
671.0	9.352
672.0	11.02
673.0	12.19
674.0	7.247
675.0	9.038
676.0	8.626
677.0	6.896
678.0	11.18
679.0	11.66
680.0	11.21
681.0	10.53
682.0	12.41
683.0	9.751
684.0	7.069
685.0	9.193
686.0	12.38
687.0	6.380
688.0	9.413
689.0	9.820
690.0	9.628
691.0	9.098
692.0	9.489
693.0	9.142
694.0	10.91
695.0	10.71
696.0	9.834
697.0	7.245
698.0	8.602
699.0	7.981
700.0	6.484
701.0	9.213
702.0	10.31
703.0	14.13
704.0	10.79
705.0	12.52
706.0	10.62
707.0	10.94
708.0	9.345
709.0	11.37
710.0	11.97
711.0	9.841
712.0	11.21
713.0	6.881
714.0	9.323
715.0	10.06
716.0	9.849
717.0	7.818
718.0	6.703
719.0	9.712
720.0	9.265
721.0	12.16
722.0	9.237
723.0	7.969
724.0	8.447
725.0	9.512
726.0	9.825
727.0	10.18
728.0	9.277
729.0	7.632
730.0	8.488
731.0	7.962
732.0	9.547
733.0	10.42
734.0	10.19
735.0	13.51
736.0	7.860
737.0	7.959
738.0	8.864
739.0	8.390
740.0	8.481
741.0	8.490
742.0	7.251
743.0	6.176
744.0	5.036
745.0	7.321
746.0	9.570
747.0	9.543
748.0	7.440
749.0	9.565
750.0	7.557
751.0	5.014
752.0	9.437
753.0	5.546
754.0	8.066
755.0	4.952
756.0	8.375
757.0	8.618
758.0	6.963
759.0	11.32
760.0	6.579
761.0	8.143
762.0	9.643
763.0	7.829
764.0	9.203
765.0	7.741
766.0	11.58
767.0	12.08
768.0	9.714
769.0	11.26
770.0	10.94
771.0	12.20
772.0	7.807
773.0	8.321
774.0	8.142
775.0	9.924
776.0	7.482
777.0	7.231
778.0	9.739
779.0	9.579
780.0	8.595

Sample:	'wa-4(EM)
File name:	100.FDS
Run Date:	'17:27:15, 07/11/2024
Operator:	WXH
Comment:	'

Instrument
Model:	F-4600 FL Spectrophotometer
Serial Number:	3080-002
ROM Version:	5J24000 02

Instrument Parameters
Measurement type:	Wavelength scan
Scan mode:	Emission
Data mode:	Fluorescence
EX WL:	460.0 nm
EM  Start WL:	480.0 nm
EM  End WL:	780.0 nm
Scan speed:	1200 nm/min
Delay:	0.0 s
EX Slit:	2.5 nm
EM Slit:	2.5 nm
PMT Voltage:	600 V
Response:	Auto 
Corrected spectra:	Off
Shutter control:	On

Peak integration
Integration method:	Rectangular
Sensitivity:	1
Threshold:	1.000

Peaks
No.	Valley(nm)	Valley(Data)
1	483.4	15.41
2	511.8	286.6
3	513.8	282.7
4	515.4	289.1
5	518.6	277.8
6	520.2	250.7
7	522.0	255.4
8	528.2	222.2
9	531.4	229.1
10	539.4	175.3
11	546.0	141.6
12	549.0	126.7
13	552.6	117.5
14	557.2	97.27
15	561.4	82.87
16	563.2	75.59
17	568.6	64.12
18	574.2	54.49
19	576.6	49.01
20	582.2	42.29
21	588.2	32.98
22	590.8	32.06
23	593.8	25.68
24	599.0	24.82
25	601.6	23.94
26	605.8	17.72
27	609.2	14.74
28	611.0	13.69
29	613.2	15.35
30	616.2	13.31
31	620.6	12.71
32	621.8	12.68
33	625.4	12.07
34	631.0	9.486
35	633.6	8.804
36	637.8	6.252
37	642.2	9.876
38	645.6	8.449
39	647.4	6.816
40	650.0	8.829
41	653.0	6.988
42	655.4	6.177
43	657.6	6.448
44	660.2	7.269
45	664.6	8.664
46	666.8	5.857
47	673.2	6.668
48	680.2	6.925
49	687.2	5.538
50	689.4	3.665
51	692.6	4.718
52	700.8	5.864
53	705.2	7.011
54	708.2	5.369
55	711.4	5.378
56	714.0	7.919
57	718.8	5.644
58	722.4	4.342
59	727.4	6.141
60	729.2	5.819
61	733.6	6.658
62	740.2	5.597
63	742.8	6.144
64	744.4	6.765
65	747.0	5.324
66	750.0	8.348
67	755.8	4.447
68	757.4	4.493
69	760.6	6.446
70	764.6	5.711
71	768.0	7.697
72	776.8	4.888
73	780.0	4.770

Data Points
nm	Data
480.0	11.02
481.0	14.30
482.0	18.28
483.0	19.51
484.0	18.77
485.0	19.99
486.0	23.81
487.0	27.13
488.0	26.53
489.0	35.77
490.0	38.89
491.0	46.83
492.0	51.80
493.0	57.48
494.0	68.51
495.0	80.44
496.0	91.73
497.0	100.1
498.0	127.7
499.0	141.8
500.0	150.0
501.0	151.3
502.0	184.6
503.0	198.4
504.0	225.7
505.0	242.4
506.0	250.7
507.0	269.5
508.0	275.6
509.0	284.1
510.0	288.5
511.0	299.0
512.0	288.6
513.0	299.9
514.0	288.3
515.0	305.3
516.0	290.8
517.0	303.5
518.0	293.6
519.0	292.9
520.0	257.7
521.0	280.6
522.0	255.4
523.0	265.6
524.0	254.3
525.0	256.5
526.0	248.6
527.0	236.9
528.0	225.2
529.0	240.0
530.0	230.7
531.0	240.9
532.0	243.0
533.0	204.5
534.0	214.8
535.0	204.7
536.0	205.2
537.0	194.0
538.0	191.6
539.0	188.2
540.0	186.4
541.0	195.6
542.0	175.0
543.0	160.9
544.0	153.9
545.0	150.4
546.0	141.6
547.0	152.0
548.0	135.2
549.0	126.7
550.0	128.6
551.0	136.4
552.0	124.6
553.0	124.1
554.0	120.3
555.0	123.8
556.0	107.7
557.0	103.2
558.0	101.3
559.0	103.7
560.0	96.51
561.0	88.98
562.0	87.92
563.0	82.34
564.0	85.52
565.0	77.48
566.0	72.23
567.0	72.98
568.0	66.30
569.0	68.99
570.0	64.58
571.0	68.72
572.0	66.63
573.0	64.64
574.0	57.38
575.0	59.52
576.0	57.06
577.0	52.34
578.0	52.81
579.0	53.92
580.0	44.45
581.0	45.88
582.0	45.46
583.0	45.08
584.0	46.70
585.0	42.83
586.0	39.87
587.0	33.96
588.0	36.20
589.0	41.60
590.0	33.19
591.0	32.71
592.0	34.63
593.0	27.50
594.0	29.59
595.0	27.15
596.0	33.67
597.0	30.61
598.0	27.58
599.0	24.82
600.0	24.01
601.0	25.98
602.0	27.53
603.0	29.47
604.0	20.61
605.0	23.52
606.0	18.59
607.0	27.46
608.0	20.23
609.0	15.47
610.0	20.29
611.0	13.69
612.0	18.59
613.0	17.71
614.0	18.61
615.0	20.15
616.0	16.24
617.0	16.35
618.0	21.09
619.0	16.37
620.0	13.08
621.0	15.14
622.0	13.92
623.0	19.19
624.0	14.48
625.0	12.64
626.0	15.92
627.0	15.48
628.0	17.28
629.0	11.92
630.0	13.42
631.0	9.486
632.0	12.48
633.0	13.45
634.0	11.22
635.0	14.12
636.0	16.48
637.0	10.58
638.0	10.56
639.0	9.552
640.0	12.59
641.0	14.09
642.0	11.55
643.0	13.78
644.0	13.99
645.0	11.77
646.0	10.17
647.0	9.417
648.0	12.46
649.0	8.972
650.0	8.829
651.0	14.11
652.0	11.70
653.0	6.988
654.0	12.24
655.0	10.74
656.0	8.917
657.0	7.582
658.0	9.481
659.0	8.661
660.0	8.660
661.0	14.59
662.0	13.33
663.0	15.79
664.0	10.61
665.0	9.139
666.0	10.49
667.0	6.507
668.0	13.89
669.0	9.280
670.0	12.62
671.0	10.92
672.0	10.69
673.0	8.686
674.0	11.32
675.0	11.44
676.0	12.22
677.0	11.58
678.0	12.87
679.0	8.367
680.0	7.488
681.0	9.943
682.0	9.286
683.0	9.620
684.0	7.935
685.0	13.94
686.0	5.646
687.0	6.751
688.0	9.991
689.0	4.926
690.0	10.74
691.0	8.992
692.0	6.129
693.0	6.219
694.0	7.084
695.0	9.541
696.0	10.92
697.0	7.226
698.0	9.584
699.0	7.193
700.0	7.021
701.0	6.894
702.0	6.570
703.0	10.78
704.0	9.783
705.0	8.430
706.0	10.63
707.0	8.041
708.0	6.170
709.0	9.303
710.0	6.625
711.0	6.490
712.0	6.108
713.0	7.356
714.0	7.919
715.0	11.07
716.0	9.737
717.0	4.901
718.0	8.189
719.0	6.574
720.0	11.87
721.0	10.92
722.0	9.044
723.0	8.119
724.0	9.380
725.0	10.54
726.0	9.239
727.0	6.660
728.0	7.065
729.0	6.176
730.0	8.099
731.0	8.971
732.0	9.611
733.0	8.854
734.0	10.15
735.0	9.831
736.0	13.38
737.0	8.798
738.0	7.895
739.0	7.639
740.0	7.342
741.0	9.798
742.0	7.664
743.0	6.151
744.0	7.557
745.0	9.493
746.0	6.542
747.0	5.324
748.0	11.14
749.0	10.45
750.0	8.348
751.0	11.59
752.0	10.96
753.0	12.02
754.0	9.636
755.0	8.261
756.0	7.187
757.0	5.501
758.0	6.235
759.0	9.286
760.0	11.18
761.0	8.807
762.0	9.421
763.0	7.990
764.0	8.145
765.0	7.123
766.0	12.58
767.0	9.348
768.0	7.697
769.0	11.77
770.0	14.51
771.0	11.61
772.0	8.968
773.0	9.963
774.0	9.207
775.0	7.526
776.0	6.304
777.0	5.104
778.0	6.665
779.0	4.334
780.0	4.770

Sample:	'wa-5(EM)
File name:	100.FDS
Run Date:	'17:27:46, 07/11/2024
Operator:	WXH
Comment:	'

Instrument
Model:	F-4600 FL Spectrophotometer
Serial Number:	3080-002
ROM Version:	5J24000 02

Instrument Parameters
Measurement type:	Wavelength scan
Scan mode:	Emission
Data mode:	Fluorescence
EX WL:	460.0 nm
EM  Start WL:	480.0 nm
EM  End WL:	780.0 nm
Scan speed:	1200 nm/min
Delay:	0.0 s
EX Slit:	2.5 nm
EM Slit:	2.5 nm
PMT Voltage:	600 V
Response:	Auto 
Corrected spectra:	Off
Shutter control:	On

Peak integration
Integration method:	Rectangular
Sensitivity:	1
Threshold:	1.000

Peaks
No.	Valley(nm)	Valley(Data)
1	482.2	14.73
2	491.4	36.80
3	511.2	279.9
4	513.6	270.4
5	514.8	271.6
6	518.0	283.4
7	521.2	276.4
8	525.2	251.7
9	535.2	186.6
10	539.2	174.1
11	553.4	106.5
12	556.6	97.06
13	563.6	74.39
14	567.6	70.71
15	569.6	60.27
16	574.0	49.10
17	576.0	50.23
18	577.2	50.45
19	581.0	39.57
20	582.8	40.02
21	587.2	35.64
22	590.0	29.90
23	595.2	25.10
24	600.8	20.28
25	602.8	20.80
26	606.6	15.86
27	608.6	17.41
28	611.0	17.21
29	613.6	16.45
30	616.0	15.99
31	619.0	14.59
32	621.6	13.60
33	626.0	14.75
34	629.8	11.35
35	636.8	8.850
36	641.2	7.610
37	644.4	7.053
38	648.6	9.401
39	653.8	5.755
40	657.8	5.388
41	660.0	6.612
42	663.6	7.873
43	667.8	6.710
44	672.0	6.731
45	673.8	6.143
46	677.2	5.407
47	680.2	8.351
48	682.6	7.665
49	685.8	7.415
50	688.6	5.474
51	691.8	5.621
52	695.2	5.530
53	698.0	6.914
54	701.0	7.579
55	703.6	6.147
56	707.2	4.967
57	709.0	7.464
58	716.0	5.263
59	719.8	4.359
60	726.4	5.769
61	730.0	6.702
62	732.6	5.471
63	737.6	5.855
64	739.0	5.347
65	742.4	3.905
66	743.8	5.044
67	745.2	4.457
68	747.2	5.260
69	750.6	4.416
70	754.8	3.029
71	759.4	4.872
72	761.0	7.176
73	763.6	6.626
74	769.6	4.607
75	773.6	4.785
76	777.0	5.123

Data Points
nm	Data
480.0	3.376
481.0	15.89
482.0	16.73
483.0	15.47
484.0	20.63
485.0	21.59
486.0	21.37
487.0	27.95
488.0	32.47
489.0	34.53
490.0	42.10
491.0	38.90
492.0	48.74
493.0	57.92
494.0	70.16
495.0	92.93
496.0	92.23
497.0	107.4
498.0	118.5
499.0	140.5
500.0	149.7
501.0	146.5
502.0	192.5
503.0	195.9
504.0	227.3
505.0	230.6
506.0	245.4
507.0	251.0
508.0	265.1
509.0	294.4
510.0	292.6
511.0	287.0
512.0	303.6
513.0	287.9
514.0	294.3
515.0	276.4
516.0	281.6
517.0	287.4
518.0	283.4
519.0	300.7
520.0	306.8
521.0	277.7
522.0	284.3
523.0	262.9
524.0	264.8
525.0	257.7
526.0	248.7
527.0	243.6
528.0	246.7
529.0	236.0
530.0	239.3
531.0	231.6
532.0	219.5
533.0	211.9
534.0	208.6
535.0	188.4
536.0	197.1
537.0	185.8
538.0	182.7
539.0	174.8
540.0	188.0
541.0	184.2
542.0	175.3
543.0	169.2
544.0	160.6
545.0	157.9
546.0	154.1
547.0	140.2
548.0	143.6
549.0	149.5
550.0	129.0
551.0	135.3
552.0	121.3
553.0	118.6
554.0	112.8
555.0	113.7
556.0	111.1
557.0	106.0
558.0	99.04
559.0	87.07
560.0	91.69
561.0	82.37
562.0	83.51
563.0	76.49
564.0	82.42
565.0	79.04
566.0	73.71
567.0	77.58
568.0	71.31
569.0	67.88
570.0	64.79
571.0	66.20
572.0	64.94
573.0	60.19
574.0	49.10
575.0	59.62
576.0	50.23
577.0	56.08
578.0	55.62
579.0	53.77
580.0	48.95
581.0	39.57
582.0	43.56
583.0	43.31
584.0	43.05
585.0	43.27
586.0	43.45
587.0	39.19
588.0	47.05
589.0	35.67
590.0	29.90
591.0	41.32
592.0	34.61
593.0	29.85
594.0	29.49
595.0	26.16
596.0	32.73
597.0	30.79
598.0	32.93
599.0	30.27
600.0	26.06
601.0	23.10
602.0	27.80
603.0	22.21
604.0	23.09
605.0	18.91
606.0	20.35
607.0	20.44
608.0	22.02
609.0	21.17
610.0	16.39
611.0	17.21
612.0	18.77
613.0	23.52
614.0	17.03
615.0	18.24
616.0	15.99
617.0	19.12
618.0	19.09
619.0	14.59
620.0	19.80
621.0	14.05
622.0	14.45
623.0	21.06
624.0	17.33
625.0	14.66
626.0	14.75
627.0	15.23
628.0	13.16
629.0	14.63
630.0	11.56
631.0	13.14
632.0	13.60
633.0	15.82
634.0	17.05
635.0	14.51
636.0	9.301
637.0	11.45
638.0	14.13
639.0	10.81
640.0	10.66
641.0	10.17
642.0	14.11
643.0	12.45
644.0	13.05
645.0	7.370
646.0	8.842
647.0	14.65
648.0	12.02
649.0	12.97
650.0	9.358
651.0	12.19
652.0	10.68
653.0	9.705
654.0	8.309
655.0	9.780
656.0	12.30
657.0	7.835
658.0	11.30
659.0	9.370
660.0	6.612
661.0	10.48
662.0	11.70
663.0	10.63
664.0	10.17
665.0	8.812
666.0	11.43
667.0	6.823
668.0	7.650
669.0	11.30
670.0	13.94
671.0	9.491
672.0	6.731
673.0	9.841
674.0	9.109
675.0	11.66
676.0	9.700
677.0	6.323
678.0	8.373
679.0	9.468
680.0	9.607
681.0	10.18
682.0	9.744
683.0	9.390
684.0	8.894
685.0	7.670
686.0	8.377
687.0	10.33
688.0	5.824
689.0	6.021
690.0	8.891
691.0	8.404
692.0	5.827
693.0	8.322
694.0	12.23
695.0	6.960
696.0	10.54
697.0	11.32
698.0	6.914
699.0	13.07
700.0	8.717
701.0	7.579
702.0	9.000
703.0	9.851
704.0	9.116
705.0	8.432
706.0	13.13
707.0	5.700
708.0	10.27
709.0	7.464
710.0	8.790
711.0	10.39
712.0	8.651
713.0	10.67
714.0	8.014
715.0	6.554
716.0	5.263
717.0	8.675
718.0	7.566
719.0	7.144
720.0	5.264
721.0	5.818
722.0	7.485
723.0	9.089
724.0	7.141
725.0	7.334
726.0	5.959
727.0	6.861
728.0	9.069
729.0	12.50
730.0	6.702
731.0	9.777
732.0	8.069
733.0	12.37
734.0	10.73
735.0	7.199
736.0	8.840
737.0	8.177
738.0	7.658
739.0	5.347
740.0	5.663
741.0	9.256
742.0	5.251
743.0	7.806
744.0	5.648
745.0	5.531
746.0	6.110
747.0	5.921
748.0	8.923
749.0	9.843
750.0	8.612
751.0	5.045
752.0	8.373
753.0	6.822
754.0	7.092
755.0	4.843
756.0	6.975
757.0	8.011
758.0	11.18
759.0	6.601
760.0	10.91
761.0	7.176
762.0	7.950
763.0	8.720
764.0	6.885
765.0	9.755
766.0	12.69
767.0	12.44
768.0	10.44
769.0	9.565
770.0	6.129
771.0	8.294
772.0	8.032
773.0	8.168
774.0	8.453
775.0	6.647
776.0	9.292
777.0	5.123
778.0	7.340
779.0	8.576
780.0	11.59

Sample:	'wa-6(EM)
File name:	100.FDS
Run Date:	'17:28:16, 07/11/2024
Operator:	WXH
Comment:	'

Instrument
Model:	F-4600 FL Spectrophotometer
Serial Number:	3080-002
ROM Version:	5J24000 02

Instrument Parameters
Measurement type:	Wavelength scan
Scan mode:	Emission
Data mode:	Fluorescence
EX WL:	460.0 nm
EM  Start WL:	480.0 nm
EM  End WL:	780.0 nm
Scan speed:	1200 nm/min
Delay:	0.0 s
EX Slit:	2.5 nm
EM Slit:	2.5 nm
PMT Voltage:	600 V
Response:	Auto 
Corrected spectra:	Off
Shutter control:	On

Peak integration
Integration method:	Rectangular
Sensitivity:	1
Threshold:	1.000

Peaks
No.	Valley(nm)	Valley(Data)
1	485.2	19.49
2	509.6	278.9
3	513.0	277.5
4	520.4	248.8
5	523.4	253.0
6	532.4	208.2
7	536.6	192.3
8	543.0	159.1
9	551.2	121.0
10	560.0	80.68
11	566.8	73.47
12	570.8	62.05
13	572.4	55.45
14	574.6	55.88
15	576.8	48.10
16	578.8	48.01
17	584.0	38.05
18	587.8	38.65
19	590.8	29.09
20	594.2	27.29
21	596.0	26.68
22	599.4	25.61
23	600.8	24.46
24	602.4	23.48
25	606.0	20.62
26	609.0	15.83
27	611.8	16.11
28	613.8	12.67
29	616.2	15.66
30	619.0	12.09
31	621.6	15.01
32	625.8	14.44
33	628.8	9.578
34	632.4	11.99
35	637.4	11.20
36	640.8	9.888
37	643.2	9.567
38	649.0	7.607
39	655.8	8.314
40	657.6	8.728
41	660.8	8.340
42	662.2	7.827
43	668.6	4.519
44	675.2	6.829
45	677.6	6.091
46	679.8	7.130
47	684.0	8.230
48	685.8	9.034
49	688.0	6.498
50	691.2	5.399
51	693.6	6.318
52	698.6	5.043
53	700.8	6.951
54	703.2	4.727
55	705.4	6.364
56	708.0	6.159
57	710.0	6.555
58	713.8	5.883
59	716.4	6.424
60	718.8	4.659
61	723.0	5.158
62	725.4	6.770
63	729.4	8.014
64	734.4	4.744
65	742.0	6.283
66	746.8	7.250
67	751.6	7.513
68	756.4	7.136
69	758.6	5.498
70	765.0	4.511
71	769.0	7.312
72	774.8	5.612
73	780.0	8.538

Data Points
nm	Data
480.0	5.987
481.0	12.11
482.0	14.57
483.0	16.02
484.0	22.53
485.0	21.82
486.0	22.45
487.0	26.98
488.0	28.70
489.0	29.03
490.0	40.32
491.0	51.27
492.0	59.43
493.0	60.82
494.0	70.89
495.0	71.59
496.0	82.45
497.0	89.32
498.0	111.7
499.0	137.5
500.0	143.8
501.0	155.0
502.0	188.5
503.0	209.8
504.0	214.6
505.0	240.5
506.0	248.1
507.0	267.3
508.0	296.7
509.0	285.1
510.0	283.2
511.0	307.2
512.0	301.7
513.0	277.5
514.0	319.0
515.0	306.3
516.0	289.8
517.0	286.0
518.0	285.1
519.0	283.0
520.0	268.5
521.0	270.1
522.0	273.7
523.0	261.6
524.0	268.1
525.0	270.8
526.0	249.3
527.0	245.8
528.0	243.8
529.0	247.5
530.0	255.3
531.0	224.2
532.0	220.8
533.0	223.7
534.0	220.0
535.0	214.0
536.0	204.6
537.0	206.4
538.0	200.2
539.0	187.9
540.0	176.1
541.0	180.1
542.0	169.6
543.0	159.1
544.0	170.7
545.0	155.8
546.0	151.3
547.0	156.0
548.0	146.2
549.0	132.2
550.0	126.1
551.0	124.4
552.0	132.2
553.0	125.1
554.0	116.4
555.0	111.4
556.0	109.5
557.0	115.4
558.0	97.18
559.0	87.75
560.0	80.68
561.0	94.78
562.0	83.86
563.0	80.47
564.0	72.84
565.0	78.88
566.0	75.37
567.0	74.19
568.0	72.08
569.0	70.06
570.0	64.67
571.0	63.47
572.0	56.62
573.0	62.25
574.0	62.72
575.0	60.44
576.0	51.55
577.0	51.29
578.0	57.27
579.0	49.66
580.0	52.82
581.0	46.77
582.0	43.01
583.0	40.42
584.0	38.05
585.0	45.84
586.0	41.22
587.0	45.95
588.0	42.89
589.0	43.72
590.0	41.15
591.0	30.29
592.0	33.95
593.0	31.75
594.0	27.75
595.0	32.08
596.0	26.68
597.0	31.40
598.0	36.40
599.0	29.65
600.0	28.53
601.0	28.24
602.0	27.64
603.0	27.82
604.0	27.62
605.0	24.59
606.0	20.62
607.0	24.18
608.0	22.77
609.0	15.83
610.0	19.97
611.0	21.41
612.0	17.87
613.0	19.26
614.0	15.88
615.0	20.48
616.0	18.13
617.0	19.16
618.0	17.24
619.0	12.09
620.0	15.03
621.0	19.03
622.0	18.92
623.0	18.60
624.0	16.37
625.0	18.62
626.0	14.56
627.0	18.03
628.0	13.63
629.0	11.12
630.0	11.27
631.0	13.89
632.0	15.90
633.0	12.38
634.0	15.77
635.0	14.41
636.0	14.15
637.0	12.00
638.0	12.78
639.0	12.15
640.0	10.86
641.0	10.98
642.0	12.31
643.0	11.69
644.0	12.51
645.0	12.16
646.0	13.39
647.0	10.96
648.0	9.633
649.0	7.607
650.0	9.263
651.0	14.06
652.0	9.975
653.0	11.03
654.0	10.61
655.0	9.344
656.0	11.73
657.0	11.86
658.0	11.52
659.0	13.28
660.0	10.47
661.0	10.15
662.0	8.626
663.0	13.10
664.0	14.56
665.0	10.98
666.0	9.468
667.0	5.759
668.0	7.545
669.0	5.067
670.0	7.487
671.0	9.200
672.0	12.69
673.0	9.690
674.0	11.39
675.0	8.131
676.0	9.882
677.0	6.938
678.0	8.269
679.0	8.313
680.0	8.561
681.0	7.433
682.0	9.216
683.0	12.62
684.0	8.230
685.0	11.88
686.0	10.46
687.0	6.967
688.0	6.498
689.0	12.40
690.0	11.46
691.0	6.853
692.0	10.09
693.0	9.258
694.0	7.427
695.0	10.48
696.0	7.405
697.0	9.321
698.0	7.181
699.0	8.349
700.0	7.859
701.0	7.269
702.0	8.178
703.0	5.361
704.0	9.614
705.0	8.033
706.0	7.499
707.0	6.562
708.0	6.159
709.0	8.050
710.0	6.555
711.0	9.504
712.0	9.067
713.0	7.421
714.0	6.446
715.0	9.308
716.0	7.684
717.0	7.394
718.0	10.28
719.0	6.910
720.0	10.82
721.0	7.685
722.0	6.611
723.0	5.158
724.0	10.09
725.0	8.489
726.0	10.49
727.0	9.847
728.0	12.18
729.0	11.15
730.0	8.991
731.0	10.08
732.0	9.438
733.0	6.156
734.0	8.614
735.0	8.802
736.0	8.392
737.0	10.70
738.0	11.28
739.0	9.797
740.0	16.18
741.0	12.13
742.0	6.283
743.0	8.008
744.0	9.199
745.0	9.569
746.0	8.344
747.0	11.72
748.0	9.485
749.0	8.589
750.0	8.263
751.0	8.255
752.0	10.36
753.0	10.37
754.0	8.470
755.0	6.931
756.0	7.180
757.0	9.248
758.0	6.862
759.0	7.259
760.0	7.315
761.0	9.772
762.0	7.652
763.0	10.53
764.0	7.748
765.0	4.511
766.0	12.50
767.0	8.625
768.0	7.433
769.0	7.312
770.0	11.09
771.0	9.775
772.0	11.59
773.0	7.073
774.0	6.095
775.0	6.213
776.0	9.978
777.0	9.336
778.0	6.986
779.0	6.778
780.0	8.538

Sample:	'wa-7(EM)
File name:	100.FDS
Run Date:	'17:28:46, 07/11/2024
Operator:	WXH
Comment:	'

Instrument
Model:	F-4600 FL Spectrophotometer
Serial Number:	3080-002
ROM Version:	5J24000 02

Instrument Parameters
Measurement type:	Wavelength scan
Scan mode:	Emission
Data mode:	Fluorescence
EX WL:	460.0 nm
EM  Start WL:	480.0 nm
EM  End WL:	780.0 nm
Scan speed:	1200 nm/min
Delay:	0.0 s
EX Slit:	2.5 nm
EM Slit:	2.5 nm
PMT Voltage:	600 V
Response:	Auto 
Corrected spectra:	Off
Shutter control:	On

Peak integration
Integration method:	Rectangular
Sensitivity:	1
Threshold:	1.000

Peaks
No.	Valley(nm)	Valley(Data)
1	484.8	13.40
2	488.2	30.34
3	508.8	258.7
4	511.0	266.8
5	513.6	285.1
6	516.6	276.0
7	520.4	274.5
8	527.0	224.4
9	529.2	225.0
10	533.4	197.1
11	536.6	188.4
12	541.4	163.8
13	544.2	150.3
14	548.6	130.6
15	550.6	123.2
16	558.2	94.72
17	565.0	79.00
18	570.2	56.80
19	573.8	51.69
20	578.0	47.09
21	579.4	45.68
22	585.8	36.08
23	587.8	28.44
24	591.2	30.93
25	594.4	27.31
26	597.2	21.79
27	600.8	23.55
28	606.8	17.88
29	608.6	17.84
30	610.6	14.23
31	616.0	13.41
32	617.2	13.87
33	619.0	14.26
34	622.6	9.719
35	625.8	10.77
36	627.8	12.47
37	633.8	9.415
38	635.4	9.740
39	638.8	8.876
40	640.2	7.506
41	644.4	7.808
42	650.4	7.576
43	652.4	7.672
44	661.4	8.116
45	663.8	7.656
46	667.8	6.236
47	673.0	7.360
48	676.0	7.149
49	679.0	7.080
50	683.6	6.813
51	684.6	6.318
52	689.6	7.591
53	691.2	5.406
54	693.8	9.445
55	696.0	7.347
56	698.6	5.962
57	704.8	5.092
58	707.0	3.933
59	710.6	5.197
60	713.4	9.356
61	715.2	7.427
62	718.0	7.046
63	720.6	8.035
64	724.0	4.412
65	726.8	5.581
66	728.6	7.116
67	732.6	4.550
68	735.2	5.776
69	741.2	3.957
70	744.0	7.912
71	747.6	6.727
72	751.4	5.361
73	755.0	7.413
74	757.8	4.850
75	760.8	7.290
76	762.4	6.686
77	766.8	7.485
78	769.8	6.485
79	772.0	5.787
80	774.6	5.173
81	776.8	4.918

Data Points
nm	Data
480.0	10.79
481.0	14.06
482.0	17.35
483.0	16.41
484.0	18.53
485.0	15.78
486.0	26.05
487.0	27.19
488.0	35.27
489.0	32.95
490.0	40.88
491.0	43.51
492.0	53.21
493.0	61.99
494.0	66.04
495.0	75.59
496.0	72.84
497.0	106.2
498.0	107.4
499.0	121.6
500.0	137.4
501.0	150.7
502.0	180.2
503.0	202.1
504.0	220.4
505.0	232.9
506.0	238.6
507.0	272.9
508.0	277.3
509.0	277.9
510.0	285.0
511.0	266.8
512.0	289.9
513.0	298.8
514.0	288.5
515.0	311.6
516.0	303.4
517.0	291.0
518.0	286.5
519.0	296.0
520.0	275.9
521.0	286.8
522.0	278.6
523.0	269.7
524.0	266.4
525.0	265.2
526.0	262.9
527.0	224.4
528.0	249.7
529.0	226.7
530.0	229.1
531.0	235.2
532.0	220.3
533.0	215.0
534.0	210.2
535.0	214.8
536.0	195.9
537.0	194.5
538.0	192.8
539.0	190.7
540.0	175.4
541.0	173.5
542.0	173.6
543.0	162.3
544.0	152.8
545.0	154.7
546.0	162.9
547.0	160.9
548.0	141.6
549.0	149.1
550.0	129.7
551.0	132.6
552.0	128.4
553.0	105.6
554.0	118.3
555.0	112.0
556.0	110.3
557.0	102.0
558.0	98.43
559.0	99.02
560.0	95.90
561.0	98.71
562.0	89.01
563.0	86.60
564.0	81.38
565.0	79.00
566.0	82.92
567.0	75.06
568.0	68.55
569.0	62.51
570.0	59.17
571.0	56.88
572.0	61.37
573.0	62.46
574.0	56.26
575.0	58.27
576.0	60.08
577.0	52.31
578.0	47.09
579.0	46.49
580.0	50.77
581.0	49.77
582.0	45.80
583.0	46.22
584.0	42.39
585.0	39.80
586.0	39.43
587.0	40.36
588.0	29.26
589.0	34.61
590.0	37.83
591.0	32.16
592.0	39.05
593.0	37.77
594.0	33.15
595.0	31.32
596.0	26.34
597.0	24.10
598.0	26.69
599.0	30.85
600.0	31.26
601.0	23.71
602.0	24.40
603.0	30.36
604.0	24.81
605.0	23.10
606.0	22.14
607.0	19.11
608.0	20.01
609.0	21.08
610.0	20.42
611.0	19.50
612.0	20.33
613.0	17.93
614.0	15.47
615.0	16.40
616.0	13.41
617.0	14.68
618.0	19.00
619.0	14.26
620.0	18.34
621.0	18.15
622.0	14.79
623.0	18.14
624.0	15.46
625.0	17.70
626.0	11.89
627.0	14.11
628.0	14.67
629.0	14.64
630.0	14.04
631.0	15.24
632.0	16.34
633.0	11.83
634.0	12.02
635.0	12.02
636.0	11.19
637.0	11.50
638.0	11.66
639.0	10.09
640.0	8.298
641.0	10.28
642.0	11.60
643.0	13.11
644.0	10.39
645.0	8.859
646.0	10.94
647.0	11.34
648.0	10.84
649.0	14.12
650.0	9.329
651.0	12.19
652.0	8.914
653.0	10.48
654.0	13.30
655.0	12.57
656.0	14.89
657.0	11.73
658.0	11.91
659.0	10.18
660.0	10.15
661.0	9.633
662.0	9.677
663.0	8.369
664.0	8.600
665.0	10.84
666.0	7.443
667.0	10.84
668.0	7.485
669.0	12.06
670.0	10.48
671.0	11.91
672.0	12.69
673.0	7.360
674.0	8.992
675.0	11.63
676.0	7.149
677.0	11.82
678.0	9.512
679.0	7.080
680.0	11.71
681.0	9.177
682.0	8.762
683.0	8.517
684.0	10.58
685.0	7.928
686.0	11.05
687.0	13.08
688.0	11.26
689.0	9.346
690.0	11.58
691.0	5.550
692.0	9.707
693.0	15.25
694.0	9.949
695.0	10.92
696.0	7.347
697.0	9.026
698.0	10.12
699.0	7.890
700.0	10.54
701.0	10.76
702.0	11.90
703.0	14.04
704.0	9.693
705.0	6.330
706.0	7.885
707.0	3.933
708.0	8.066
709.0	6.966
710.0	7.589
711.0	6.511
712.0	10.65
713.0	11.21
714.0	12.32
715.0	8.750
716.0	12.60
717.0	11.85
718.0	7.046
719.0	9.982
720.0	10.79
721.0	10.44
722.0	13.24
723.0	8.971
724.0	4.412
725.0	5.092
726.0	9.503
727.0	6.447
728.0	8.013
729.0	8.454
730.0	9.610
731.0	10.58
732.0	7.211
733.0	8.717
734.0	6.320
735.0	6.414
736.0	6.544
737.0	9.736
738.0	10.55
739.0	9.524
740.0	9.621
741.0	5.940
742.0	11.68
743.0	10.72
744.0	7.912
745.0	11.25
746.0	9.126
747.0	6.945
748.0	10.33
749.0	7.022
750.0	8.222
751.0	6.587
752.0	11.27
753.0	10.72
754.0	10.06
755.0	7.413
756.0	9.544
757.0	10.41
758.0	7.895
759.0	7.753
760.0	10.01
761.0	8.575
762.0	11.20
763.0	11.55
764.0	10.29
765.0	11.74
766.0	6.855
767.0	7.749
768.0	11.55
769.0	8.147
770.0	8.595
771.0	9.566
772.0	5.787
773.0	9.433
774.0	7.592
775.0	8.517
776.0	8.413
777.0	7.707
778.0	9.386
779.0	8.140
780.0	9.927

Sample:	'wa-8(EM)
File name:	100.FDS
Run Date:	'17:29:16, 07/11/2024
Operator:	WXH
Comment:	'

Instrument
Model:	F-4600 FL Spectrophotometer
Serial Number:	3080-002
ROM Version:	5J24000 02

Instrument Parameters
Measurement type:	Wavelength scan
Scan mode:	Emission
Data mode:	Fluorescence
EX WL:	460.0 nm
EM  Start WL:	480.0 nm
EM  End WL:	780.0 nm
Scan speed:	1200 nm/min
Delay:	0.0 s
EX Slit:	2.5 nm
EM Slit:	2.5 nm
PMT Voltage:	600 V
Response:	Auto 
Corrected spectra:	Off
Shutter control:	On

Peak integration
Integration method:	Rectangular
Sensitivity:	1
Threshold:	1.000

Peaks
No.	Valley(nm)	Valley(Data)
1	484.8	15.57
2	487.0	21.59
3	509.0	264.2
4	513.8	282.7
5	517.4	286.5
6	521.8	263.5
7	526.6	232.3
8	529.0	221.7
9	539.0	185.6
10	542.6	150.2
11	558.6	92.09
12	563.4	75.96
13	568.6	55.27
14	570.6	56.94
15	577.2	39.85
16	584.4	35.21
17	588.4	29.36
18	590.6	30.05
19	598.2	25.35
20	603.4	18.84
21	613.6	13.85
22	616.6	14.99
23	622.8	10.79
24	627.0	10.23
25	631.8	8.756
26	636.8	10.54
27	639.2	8.576
28	642.6	8.732
29	647.2	7.036
30	651.4	7.972
31	654.2	7.877
32	656.8	8.041
33	660.8	5.337
34	665.2	5.677
35	667.6	6.953
36	669.2	7.972
37	672.2	5.624
38	676.4	5.441
39	678.0	5.838
40	682.4	6.724
41	684.6	6.448
42	687.2	7.013
43	692.0	4.643
44	694.8	7.028
45	697.8	6.265
46	704.8	6.199
47	706.2	7.015
48	708.6	5.818
49	712.4	6.814
50	715.2	7.769
51	718.4	5.684
52	722.0	5.575
53	723.8	6.543
54	729.6	5.533
55	734.8	4.893
56	739.4	6.718
57	745.6	3.513
58	748.2	8.517
59	749.6	6.450
60	752.6	5.832
61	754.4	5.122
62	758.0	7.641
63	760.0	6.169
64	763.4	8.589
65	765.0	6.163
66	769.0	5.565
67	771.0	6.000
68	773.4	4.500
69	775.6	6.687
70	777.6	8.268

Data Points
nm	Data
480.0	11.21
481.0	15.04
482.0	13.73
483.0	15.86
484.0	18.55
485.0	18.69
486.0	29.45
487.0	21.59
488.0	32.96
489.0	37.47
490.0	40.59
491.0	51.20
492.0	56.29
493.0	56.17
494.0	62.71
495.0	74.63
496.0	82.64
497.0	102.7
498.0	122.5
499.0	122.0
500.0	141.1
501.0	151.7
502.0	182.0
503.0	195.3
504.0	210.5
505.0	234.4
506.0	236.2
507.0	264.1
508.0	288.7
509.0	264.2
510.0	279.3
511.0	297.5
512.0	306.6
513.0	294.9
514.0	296.8
515.0	289.5
516.0	308.5
517.0	294.1
518.0	291.4
519.0	298.3
520.0	288.3
521.0	272.9
522.0	267.2
523.0	267.3
524.0	269.5
525.0	248.9
526.0	239.7
527.0	242.9
528.0	237.2
529.0	221.7
530.0	222.6
531.0	220.9
532.0	218.0
533.0	206.0
534.0	210.1
535.0	207.1
536.0	198.7
537.0	195.9
538.0	192.5
539.0	185.6
540.0	193.8
541.0	179.6
542.0	165.4
543.0	161.8
544.0	168.8
545.0	152.9
546.0	145.9
547.0	139.1
548.0	152.7
549.0	146.2
550.0	130.8
551.0	126.4
552.0	125.1
553.0	123.9
554.0	124.8
555.0	110.0
556.0	99.21
557.0	99.34
558.0	97.56
559.0	99.10
560.0	96.21
561.0	89.93
562.0	82.45
563.0	81.71
564.0	78.37
565.0	88.06
566.0	84.34
567.0	70.23
568.0	67.09
569.0	63.82
570.0	67.70
571.0	60.55
572.0	63.06
573.0	63.76
574.0	63.30
575.0	57.17
576.0	45.56
577.0	40.09
578.0	55.14
579.0	52.37
580.0	49.70
581.0	48.00
582.0	46.92
583.0	42.65
584.0	37.57
585.0	49.31
586.0	45.87
587.0	41.20
588.0	35.35
589.0	31.72
590.0	34.49
591.0	32.27
592.0	31.76
593.0	32.79
594.0	34.54
595.0	33.94
596.0	32.38
597.0	32.18
598.0	27.91
599.0	32.07
600.0	27.47
601.0	30.47
602.0	23.24
603.0	25.32
604.0	21.41
605.0	27.80
606.0	24.75
607.0	23.86
608.0	23.19
609.0	22.92
610.0	18.59
611.0	19.92
612.0	20.46
613.0	18.37
614.0	15.87
615.0	17.49
616.0	15.99
617.0	17.80
618.0	22.90
619.0	25.11
620.0	18.78
621.0	13.79
622.0	13.73
623.0	11.92
624.0	16.05
625.0	15.90
626.0	12.88
627.0	10.23
628.0	13.54
629.0	14.65
630.0	15.34
631.0	10.71
632.0	9.046
633.0	20.11
634.0	14.48
635.0	16.53
636.0	12.89
637.0	11.60
638.0	11.05
639.0	8.932
640.0	10.28
641.0	13.21
642.0	10.86
643.0	9.026
644.0	11.63
645.0	10.74
646.0	9.160
647.0	7.670
648.0	8.705
649.0	16.00
650.0	9.981
651.0	9.867
652.0	10.40
653.0	9.978
654.0	9.334
655.0	15.95
656.0	11.34
657.0	8.509
658.0	8.334
659.0	10.56
660.0	9.080
661.0	5.570
662.0	10.02
663.0	10.76
664.0	6.968
665.0	7.113
666.0	9.153
667.0	9.293
668.0	9.135
669.0	8.014
670.0	11.69
671.0	13.45
672.0	7.436
673.0	11.38
674.0	11.60
675.0	7.617
676.0	7.465
677.0	8.565
678.0	5.838
679.0	8.926
680.0	11.68
681.0	10.21
682.0	10.93
683.0	12.36
684.0	9.594
685.0	8.912
686.0	10.80
687.0	7.894
688.0	7.895
689.0	9.389
690.0	10.69
691.0	5.390
692.0	4.643
693.0	11.28
694.0	10.34
695.0	7.067
696.0	8.619
697.0	8.276
698.0	7.323
699.0	8.383
700.0	7.221
701.0	13.03
702.0	11.02
703.0	10.65
704.0	8.930
705.0	8.326
706.0	7.566
707.0	8.876
708.0	6.377
709.0	7.266
710.0	9.517
711.0	11.23
712.0	10.30
713.0	9.343
714.0	11.47
715.0	8.941
716.0	10.41
717.0	8.561
718.0	8.405
719.0	7.844
720.0	8.459
721.0	6.887
722.0	5.575
723.0	13.61
724.0	6.976
725.0	6.918
726.0	10.79
727.0	8.947
728.0	7.960
729.0	6.985
730.0	7.104
731.0	8.253
732.0	8.042
733.0	9.304
734.0	5.434
735.0	7.769
736.0	6.655
737.0	9.795
738.0	10.89
739.0	8.146
740.0	10.11
741.0	14.36
742.0	8.904
743.0	8.884
744.0	9.069
745.0	9.692
746.0	6.702
747.0	9.856
748.0	8.839
749.0	10.49
750.0	7.942
751.0	8.404
752.0	7.411
753.0	8.169
754.0	6.960
755.0	8.616
756.0	7.792
757.0	7.244
758.0	7.641
759.0	10.26
760.0	6.169
761.0	10.38
762.0	13.42
763.0	9.069
764.0	12.87
765.0	6.163
766.0	8.197
767.0	7.908
768.0	10.21
769.0	5.565
770.0	8.040
771.0	6.000
772.0	8.878
773.0	8.376
774.0	8.977
775.0	8.817
776.0	8.880
777.0	9.598
778.0	9.514
779.0	11.39
780.0	11.00

Sample:	'wa-9(EM)
File name:	100.FDS
Run Date:	'17:29:46, 07/11/2024
Operator:	WXH
Comment:	'

Instrument
Model:	F-4600 FL Spectrophotometer
Serial Number:	3080-002
ROM Version:	5J24000 02

Instrument Parameters
Measurement type:	Wavelength scan
Scan mode:	Emission
Data mode:	Fluorescence
EX WL:	460.0 nm
EM  Start WL:	480.0 nm
EM  End WL:	780.0 nm
Scan speed:	1200 nm/min
Delay:	0.0 s
EX Slit:	2.5 nm
EM Slit:	2.5 nm
PMT Voltage:	600 V
Response:	Auto 
Corrected spectra:	Off
Shutter control:	On

Peak integration
Integration method:	Rectangular
Sensitivity:	1
Threshold:	1.000

Peaks
No.	Valley(nm)	Valley(Data)
1	487.8	20.97
2	507.8	259.0
3	509.8	277.1
4	519.8	261.3
5	523.6	250.1
6	528.6	224.5
7	532.2	205.8
8	537.8	183.7
9	553.8	107.9
10	558.6	91.59
11	561.0	81.69
12	568.4	59.96
13	572.0	55.93
14	573.8	53.60
15	576.6	48.15
16	581.2	39.43
17	584.4	33.77
18	587.0	31.29
19	590.6	29.26
20	594.0	28.82
21	597.2	22.31
22	598.6	23.74
23	600.8	20.11
24	605.4	19.56
25	609.6	18.84
26	614.6	12.35
27	618.0	14.23
28	620.4	9.968
29	624.0	14.06
30	628.2	13.10
31	630.8	13.24
32	632.8	10.71
33	635.4	9.079
34	637.4	8.242
35	642.0	8.599
36	645.6	7.380
37	647.8	6.343
38	652.6	7.114
39	654.8	9.774
40	657.2	7.216
41	661.4	7.390
42	663.4	7.285
43	665.8	7.404
44	668.8	4.643
45	672.8	7.311
46	675.4	5.998
47	678.0	8.039
48	680.0	6.581
49	682.4	5.548
50	685.6	7.722
51	688.0	6.948
52	692.4	5.056
53	693.8	4.255
54	696.8	6.030
55	698.8	8.124
56	702.0	6.541
57	705.0	8.176
58	709.0	4.843
59	715.2	5.860
60	720.0	4.610
61	721.6	8.240
62	724.4	5.220
63	726.4	8.221
64	728.6	6.357
65	732.4	6.060
66	735.8	7.071
67	738.8	9.358
68	742.4	8.199
69	747.6	5.208
70	751.6	7.033
71	754.4	3.612
72	756.6	6.351
73	758.8	7.873
74	760.0	7.295
75	764.2	8.234
76	768.2	5.573
77	770.0	5.778
78	772.0	6.548
79	775.6	5.582
80	778.4	6.389

Data Points
nm	Data
480.0	21.06
481.0	17.56
482.0	16.70
483.0	14.10
484.0	14.85
485.0	21.87
486.0	26.53
487.0	26.10
488.0	27.11
489.0	30.03
490.0	35.91
491.0	45.27
492.0	52.45
493.0	60.01
494.0	63.17
495.0	83.74
496.0	103.1
497.0	102.1
498.0	124.0
499.0	134.3
500.0	148.4
501.0	162.4
502.0	185.2
503.0	204.7
504.0	219.9
505.0	257.8
506.0	264.9
507.0	274.7
508.0	262.6
509.0	297.9
510.0	286.2
511.0	294.5
512.0	320.4
513.0	309.1
514.0	308.0
515.0	305.2
516.0	304.4
517.0	297.8
518.0	293.3
519.0	278.4
520.0	262.8
521.0	280.2
522.0	265.6
523.0	263.9
524.0	258.8
525.0	260.3
526.0	257.2
527.0	232.4
528.0	233.3
529.0	243.7
530.0	250.9
531.0	221.2
532.0	210.3
533.0	209.7
534.0	221.5
535.0	199.8
536.0	195.1
537.0	185.8
538.0	187.3
539.0	195.7
540.0	187.8
541.0	179.5
542.0	169.7
543.0	158.7
544.0	153.5
545.0	153.6
546.0	148.8
547.0	154.0
548.0	144.9
549.0	142.8
550.0	128.3
551.0	129.2
552.0	127.8
553.0	124.1
554.0	111.8
555.0	115.2
556.0	115.2
557.0	104.8
558.0	105.6
559.0	98.86
560.0	90.83
561.0	81.69
562.0	89.32
563.0	83.82
564.0	86.85
565.0	79.01
566.0	77.75
567.0	78.58
568.0	68.51
569.0	66.63
570.0	69.46
571.0	67.38
572.0	55.93
573.0	59.50
574.0	55.08
575.0	69.44
576.0	51.74
577.0	49.83
578.0	51.41
579.0	53.57
580.0	50.90
581.0	44.22
582.0	41.36
583.0	49.00
584.0	39.97
585.0	41.14
586.0	40.80
587.0	31.29
588.0	39.35
589.0	39.65
590.0	33.49
591.0	36.27
592.0	41.31
593.0	41.16
594.0	28.82
595.0	33.57
596.0	27.20
597.0	23.75
598.0	29.18
599.0	28.08
600.0	30.56
601.0	23.17
602.0	22.83
603.0	26.57
604.0	22.11
605.0	22.41
606.0	21.86
607.0	27.12
608.0	21.30
609.0	19.31
610.0	20.40
611.0	21.85
612.0	21.03
613.0	16.75
614.0	18.21
615.0	18.46
616.0	16.99
617.0	17.99
618.0	14.23
619.0	18.08
620.0	10.67
621.0	15.20
622.0	15.55
623.0	17.82
624.0	14.06
625.0	15.72
626.0	19.15
627.0	14.84
628.0	13.74
629.0	19.56
630.0	16.16
631.0	13.63
632.0	14.85
633.0	11.21
634.0	11.83
635.0	13.51
636.0	11.73
637.0	10.79
638.0	11.92
639.0	11.22
640.0	14.10
641.0	10.32
642.0	8.599
643.0	11.00
644.0	14.82
645.0	10.14
646.0	11.46
647.0	6.364
648.0	6.973
649.0	8.617
650.0	10.88
651.0	11.31
652.0	11.77
653.0	11.67
654.0	11.00
655.0	9.793
656.0	10.30
657.0	7.300
658.0	11.99
659.0	10.90
660.0	9.578
661.0	9.385
662.0	10.63
663.0	9.007
664.0	11.00
665.0	11.06
666.0	8.246
667.0	9.782
668.0	9.816
669.0	5.699
670.0	11.92
671.0	9.252
672.0	10.91
673.0	8.496
674.0	9.378
675.0	7.128
676.0	10.41
677.0	9.444
678.0	8.039
679.0	9.492
680.0	6.581
681.0	9.228
682.0	7.756
683.0	5.795
684.0	12.05
685.0	11.00
686.0	11.54
687.0	12.55
688.0	6.948
689.0	10.85
690.0	7.420
691.0	8.095
692.0	8.229
693.0	9.305
694.0	7.612
695.0	11.83
696.0	7.442
697.0	9.205
698.0	11.28
699.0	9.534
700.0	12.60
701.0	7.490
702.0	6.541
703.0	9.989
704.0	12.82
705.0	8.176
706.0	10.17
707.0	7.943
708.0	9.617
709.0	4.843
710.0	10.36
711.0	9.401
712.0	14.18
713.0	12.37
714.0	11.12
715.0	6.143
716.0	8.899
717.0	10.54
718.0	8.253
719.0	5.225
720.0	4.610
721.0	10.22
722.0	9.221
723.0	12.24
724.0	7.283
725.0	10.82
726.0	8.566
727.0	10.31
728.0	8.467
729.0	10.33
730.0	10.60
731.0	6.828
732.0	6.550
733.0	10.65
734.0	9.853
735.0	8.596
736.0	7.236
737.0	8.965
738.0	13.10
739.0	10.22
740.0	9.689
741.0	11.02
742.0	8.526
743.0	8.800
744.0	8.083
745.0	7.883
746.0	8.669
747.0	6.346
748.0	6.720
749.0	7.739
750.0	10.98
751.0	7.861
752.0	8.065
753.0	8.043
754.0	5.867
755.0	8.265
756.0	8.850
757.0	8.783
758.0	11.38
759.0	9.085
760.0	7.295
761.0	11.69
762.0	8.836
763.0	11.54
764.0	9.967
765.0	10.48
766.0	7.976
767.0	8.842
768.0	6.636
769.0	9.756
770.0	5.778
771.0	9.535
772.0	6.548
773.0	10.25
774.0	10.12
775.0	8.310
776.0	7.010
777.0	10.36
778.0	8.391
779.0	9.787
780.0	13.93

Sample:	'wa-10(EM)
File name:	100.FDS
Run Date:	'17:30:17, 07/11/2024
Operator:	WXH
Comment:	'

Instrument
Model:	F-4600 FL Spectrophotometer
Serial Number:	3080-002
ROM Version:	5J24000 02

Instrument Parameters
Measurement type:	Wavelength scan
Scan mode:	Emission
Data mode:	Fluorescence
EX WL:	460.0 nm
EM  Start WL:	480.0 nm
EM  End WL:	780.0 nm
Scan speed:	1200 nm/min
Delay:	0.0 s
EX Slit:	2.5 nm
EM Slit:	2.5 nm
PMT Voltage:	600 V
Response:	Auto 
Corrected spectra:	Off
Shutter control:	On

Peak integration
Integration method:	Rectangular
Sensitivity:	1
Threshold:	1.000

Peaks
No.	Valley(nm)	Valley(Data)
1	485.2	19.52
2	487.6	25.60
3	509.6	264.7
4	513.0	278.3
5	515.8	272.1
6	522.0	248.9
7	524.4	243.7
8	530.4	217.1
9	536.2	187.3
10	539.4	184.2
11	542.6	160.2
12	545.2	150.4
13	551.0	120.0
14	555.6	101.7
15	558.6	90.10
16	561.2	83.60
17	569.8	60.47
18	571.6	56.41
19	574.4	56.05
20	576.6	48.55
21	580.2	38.54
22	587.6	31.65
23	588.8	31.27
24	591.4	29.94
25	598.0	26.35
26	602.2	21.84
27	607.6	17.82
28	609.8	16.62
29	611.6	16.79
30	613.8	17.57
31	616.6	15.09
32	622.2	11.76
33	624.2	11.01
34	627.6	10.10
35	634.4	10.19
36	638.8	8.467
37	643.0	9.371
38	646.0	9.074
39	648.0	9.229
40	649.4	8.788
41	654.4	7.359
42	657.8	8.227
43	662.6	6.078
44	668.0	5.838
45	674.6	6.671
46	676.6	5.719
47	679.8	7.317
48	682.8	5.173
49	687.8	7.425
50	689.8	6.794
51	694.0	6.402
52	697.2	5.640
53	705.2	6.877
54	707.8	5.332
55	714.2	5.367
56	719.6	4.434
57	723.6	7.851
58	726.4	7.217
59	728.2	7.021
60	731.0	6.479
61	735.6	5.730
62	739.2	3.977
63	741.0	5.271
64	744.8	5.505
65	747.8	5.186
66	749.6	6.228
67	751.6	5.392
68	753.2	4.419
69	758.4	5.395
70	762.0	6.177
71	765.4	5.977
72	767.2	5.835
73	770.6	4.935
74	773.6	4.428
75	780.0	7.459

Data Points
nm	Data
480.0	17.85
481.0	15.90
482.0	15.16
483.0	13.38
484.0	23.21
485.0	21.59
486.0	24.63
487.0	30.02
488.0	28.24
489.0	36.02
490.0	41.16
491.0	46.20
492.0	42.43
493.0	58.68
494.0	63.03
495.0	74.09
496.0	89.12
497.0	105.5
498.0	107.4
499.0	130.5
500.0	147.9
501.0	165.7
502.0	182.9
503.0	193.1
504.0	220.1
505.0	228.6
506.0	236.8
507.0	264.7
508.0	283.5
509.0	277.4
510.0	282.5
511.0	297.7
512.0	293.7
513.0	278.3
514.0	298.3
515.0	290.8
516.0	280.6
517.0	293.3
518.0	291.4
519.0	294.0
520.0	278.5
521.0	268.0
522.0	248.9
523.0	265.6
524.0	246.0
525.0	244.8
526.0	244.3
527.0	250.9
528.0	248.6
529.0	236.2
530.0	224.3
531.0	239.7
532.0	216.5
533.0	213.8
534.0	219.9
535.0	207.7
536.0	191.5
537.0	211.7
538.0	202.7
539.0	186.9
540.0	186.8
541.0	186.4
542.0	165.7
543.0	170.3
544.0	167.4
545.0	152.0
546.0	158.5
547.0	151.0
548.0	148.7
549.0	136.6
550.0	125.6
551.0	120.0
552.0	134.3
553.0	123.5
554.0	120.0
555.0	109.8
556.0	118.2
557.0	112.8
558.0	101.8
559.0	93.68
560.0	92.69
561.0	89.88
562.0	89.86
563.0	91.85
564.0	83.76
565.0	76.98
566.0	77.35
567.0	74.32
568.0	67.00
569.0	72.05
570.0	62.67
571.0	63.35
572.0	65.96
573.0	61.28
574.0	58.37
575.0	64.65
576.0	56.46
577.0	51.85
578.0	55.53
579.0	50.68
580.0	40.03
581.0	50.26
582.0	48.93
583.0	47.71
584.0	44.81
585.0	39.87
586.0	38.73
587.0	37.31
588.0	36.24
589.0	33.79
590.0	39.25
591.0	32.50
592.0	30.13
593.0	37.27
594.0	34.84
595.0	32.89
596.0	26.01
597.0	30.51
598.0	26.35
599.0	31.62
600.0	28.83
601.0	25.02
602.0	23.30
603.0	24.07
604.0	25.84
605.0	19.94
606.0	24.26
607.0	20.57
608.0	24.65
609.0	20.76
610.0	17.30
611.0	20.57
612.0	18.14
613.0	24.07
614.0	18.49
615.0	19.31
616.0	20.96
617.0	16.96
618.0	18.37
619.0	19.61
620.0	18.41
621.0	14.96
622.0	13.06
623.0	16.00
624.0	12.80
625.0	14.07
626.0	12.80
627.0	12.02
628.0	12.13
629.0	18.03
630.0	16.49
631.0	13.61
632.0	13.99
633.0	10.78
634.0	10.36
635.0	12.41
636.0	12.77
637.0	15.25
638.0	11.30
639.0	12.05
640.0	11.29
641.0	10.08
642.0	15.28
643.0	9.371
644.0	11.56
645.0	12.67
646.0	9.074
647.0	9.789
648.0	9.229
649.0	12.93
650.0	13.01
651.0	13.30
652.0	12.99
653.0	9.873
654.0	8.430
655.0	9.104
656.0	9.295
657.0	9.924
658.0	10.16
659.0	13.23
660.0	12.33
661.0	9.002
662.0	8.643
663.0	8.517
664.0	11.36
665.0	10.26
666.0	9.274
667.0	9.760
668.0	5.838
669.0	10.54
670.0	9.642
671.0	10.62
672.0	12.96
673.0	13.56
674.0	10.83
675.0	10.90
676.0	8.422
677.0	8.227
678.0	10.63
679.0	9.890
680.0	7.623
681.0	12.90
682.0	8.507
683.0	5.905
684.0	8.218
685.0	10.00
686.0	12.68
687.0	9.279
688.0	8.679
689.0	13.33
690.0	7.826
691.0	10.11
692.0	10.23
693.0	10.42
694.0	6.402
695.0	12.98
696.0	10.90
697.0	7.895
698.0	11.41
699.0	11.95
700.0	8.457
701.0	9.548
702.0	9.984
703.0	8.335
704.0	7.398
705.0	6.906
706.0	10.93
707.0	7.251
708.0	6.092
709.0	9.263
710.0	7.232
711.0	8.481
712.0	9.179
713.0	6.195
714.0	5.718
715.0	5.987
716.0	10.77
717.0	8.773
718.0	9.870
719.0	6.740
720.0	8.758
721.0	9.931
722.0	12.92
723.0	10.40
724.0	9.451
725.0	8.479
726.0	9.420
727.0	9.683
728.0	7.512
729.0	8.724
730.0	11.23
731.0	6.479
732.0	12.61
733.0	9.350
734.0	8.899
735.0	7.479
736.0	7.354
737.0	8.969
738.0	8.955
739.0	4.744
740.0	7.851
741.0	5.271
742.0	8.305
743.0	11.51
744.0	7.862
745.0	7.529
746.0	9.629
747.0	10.35
748.0	6.056
749.0	7.122
750.0	7.799
751.0	6.519
752.0	9.970
753.0	5.003
754.0	6.313
755.0	9.443
756.0	8.236
757.0	7.028
758.0	8.646
759.0	7.486
760.0	8.036
761.0	8.093
762.0	6.177
763.0	7.926
764.0	7.457
765.0	6.560
766.0	9.235
767.0	7.380
768.0	9.707
769.0	8.298
770.0	5.895
771.0	5.527
772.0	9.326
773.0	7.924
774.0	6.396
775.0	6.387
776.0	7.881
777.0	7.897
778.0	9.213
779.0	8.382
780.0	7.459

Sample:	'wa-11(EM)
File name:	100.FDS
Run Date:	'17:30:47, 07/11/2024
Operator:	WXH
Comment:	'

Instrument
Model:	F-4600 FL Spectrophotometer
Serial Number:	3080-002
ROM Version:	5J24000 02

Instrument Parameters
Measurement type:	Wavelength scan
Scan mode:	Emission
Data mode:	Fluorescence
EX WL:	460.0 nm
EM  Start WL:	480.0 nm
EM  End WL:	780.0 nm
Scan speed:	1200 nm/min
Delay:	0.0 s
EX Slit:	2.5 nm
EM Slit:	2.5 nm
PMT Voltage:	600 V
Response:	Auto 
Corrected spectra:	Off
Shutter control:	On

Peak integration
Integration method:	Rectangular
Sensitivity:	1
Threshold:	1.000

Peaks
No.	Valley(nm)	Valley(Data)
1	484.0	17.00
2	505.6	228.3
3	509.8	278.2
4	518.2	273.9
5	522.4	257.4
6	526.2	239.6
7	528.0	235.1
8	531.2	214.3
9	534.8	194.4
10	537.6	188.3
11	539.4	168.0
12	543.2	152.1
13	548.6	130.6
14	556.2	94.77
15	562.6	73.99
16	563.8	75.69
17	569.4	60.10
18	571.4	51.37
19	575.0	50.50
20	576.8	48.22
21	580.2	42.44
22	581.8	42.93
23	586.4	35.01
24	589.6	31.72
25	594.0	28.39
26	597.8	22.40
27	603.6	18.60
28	610.2	15.36
29	614.8	15.93
30	619.0	14.42
31	621.2	13.07
32	627.4	13.33
33	630.8	8.963
34	633.0	11.21
35	636.2	8.487
36	640.0	9.678
37	643.2	8.610
38	644.4	9.980
39	647.6	8.855
40	652.2	5.750
41	655.8	6.504
42	659.8	6.662
43	664.8	6.191
44	668.4	8.150
45	669.8	5.045
46	672.0	5.200
47	679.6	8.124
48	683.2	6.041
49	688.0	5.052
50	692.2	7.603
51	695.0	6.648
52	697.0	7.707
53	702.4	6.866
54	709.4	4.168
55	714.2	7.824
56	721.6	6.173
57	724.6	5.056
58	728.4	6.976
59	732.6	5.737
60	735.2	5.447
61	739.4	6.075
62	741.6	6.007
63	746.0	7.322
64	747.6	6.151
65	749.8	5.196
66	752.4	6.493
67	756.4	5.687
68	760.4	4.168
69	765.8	4.880
70	768.8	6.307
71	770.8	5.341
72	780.0	5.173

Data Points
nm	Data
480.0	7.764
481.0	10.98
482.0	18.50
483.0	19.96
484.0	17.00
485.0	21.34
486.0	19.41
487.0	22.98
488.0	27.83
489.0	31.48
490.0	33.49
491.0	38.10
492.0	44.36
493.0	57.00
494.0	70.38
495.0	76.02
496.0	92.53
497.0	97.35
498.0	108.0
499.0	122.7
500.0	141.2
501.0	167.3
502.0	182.8
503.0	198.4
504.0	231.8
505.0	242.9
506.0	244.1
507.0	262.0
508.0	266.5
509.0	299.4
510.0	286.2
511.0	286.6
512.0	307.2
513.0	294.4
514.0	312.4
515.0	305.6
516.0	294.7
517.0	297.8
518.0	278.2
519.0	292.1
520.0	296.9
521.0	277.1
522.0	262.9
523.0	275.4
524.0	266.2
525.0	263.8
526.0	246.8
527.0	253.7
528.0	235.1
529.0	248.1
530.0	228.2
531.0	222.8
532.0	217.9
533.0	213.9
534.0	201.0
535.0	202.8
536.0	213.6
537.0	196.8
538.0	193.8
539.0	181.7
540.0	189.2
541.0	185.3
542.0	169.8
543.0	155.1
544.0	154.9
545.0	159.6
546.0	155.9
547.0	148.4
548.0	140.9
549.0	147.1
550.0	146.3
551.0	138.8
552.0	113.5
553.0	124.6
554.0	119.5
555.0	112.9
556.0	96.18
557.0	106.5
558.0	108.0
559.0	106.0
560.0	100.5
561.0	84.49
562.0	79.84
563.0	81.21
564.0	78.51
565.0	83.22
566.0	77.99
567.0	76.91
568.0	66.39
569.0	66.00
570.0	68.50
571.0	56.01
572.0	65.05
573.0	64.62
574.0	55.29
575.0	50.50
576.0	59.00
577.0	51.96
578.0	58.41
579.0	52.48
580.0	47.62
581.0	53.36
582.0	45.36
583.0	47.32
584.0	42.75
585.0	41.81
586.0	38.85
587.0	40.72
588.0	34.90
589.0	37.11
590.0	33.41
591.0	36.85
592.0	35.90
593.0	39.22
594.0	28.39
595.0	32.78
596.0	33.08
597.0	25.39
598.0	22.41
599.0	24.29
600.0	24.61
601.0	25.11
602.0	20.51
603.0	20.26
604.0	21.48
605.0	28.93
606.0	30.47
607.0	24.99
608.0	21.04
609.0	18.55
610.0	15.70
611.0	18.32
612.0	20.62
613.0	18.08
614.0	17.75
615.0	18.68
616.0	21.36
617.0	18.63
618.0	16.94
619.0	14.42
620.0	18.07
621.0	14.06
622.0	15.67
623.0	16.91
624.0	15.08
625.0	14.31
626.0	14.96
627.0	15.06
628.0	16.65
629.0	11.81
630.0	12.68
631.0	11.93
632.0	16.81
633.0	11.21
634.0	15.08
635.0	14.55
636.0	11.42
637.0	13.28
638.0	14.09
639.0	10.36
640.0	9.678
641.0	12.17
642.0	10.75
643.0	9.057
644.0	11.56
645.0	11.13
646.0	11.10
647.0	9.380
648.0	9.939
649.0	13.05
650.0	10.88
651.0	8.866
652.0	6.091
653.0	8.393
654.0	10.07
655.0	12.54
656.0	8.269
657.0	12.17
658.0	11.72
659.0	8.764
660.0	8.145
661.0	11.28
662.0	11.19
663.0	9.009
664.0	7.978
665.0	6.944
666.0	10.58
667.0	9.596
668.0	10.88
669.0	10.85
670.0	6.005
671.0	5.801
672.0	5.200
673.0	10.98
674.0	9.220
675.0	8.309
676.0	13.82
677.0	10.32
678.0	11.04
679.0	8.975
680.0	10.07
681.0	14.36
682.0	7.873
683.0	7.919
684.0	9.994
685.0	8.448
686.0	7.365
687.0	6.633
688.0	5.052
689.0	6.107
690.0	13.60
691.0	10.67
692.0	9.013
693.0	10.46
694.0	9.106
695.0	6.648
696.0	10.91
697.0	7.707
698.0	11.47
699.0	13.27
700.0	7.573
701.0	7.607
702.0	7.073
703.0	10.41
704.0	11.68
705.0	8.899
706.0	7.852
707.0	5.214
708.0	5.823
709.0	4.412
710.0	7.524
711.0	8.453
712.0	9.457
713.0	11.37
714.0	6.997
715.0	8.658
716.0	9.993
717.0	11.82
718.0	10.15
719.0	9.147
720.0	10.92
721.0	6.714
722.0	12.28
723.0	8.075
724.0	8.370
725.0	7.455
726.0	10.78
727.0	10.01
728.0	9.452
729.0	11.21
730.0	11.63
731.0	11.87
732.0	8.617
733.0	6.608
734.0	10.44
735.0	7.505
736.0	7.650
737.0	9.735
738.0	8.037
739.0	8.707
740.0	6.313
741.0	9.685
742.0	7.317
743.0	7.275
744.0	6.912
745.0	8.471
746.0	7.322
747.0	9.194
748.0	8.308
749.0	7.282
750.0	8.581
751.0	8.573
752.0	9.449
753.0	7.074
754.0	9.610
755.0	8.827
756.0	9.514
757.0	8.493
758.0	7.484
759.0	9.065
760.0	5.576
761.0	6.197
762.0	11.77
763.0	10.61
764.0	9.964
765.0	6.396
766.0	5.969
767.0	12.13
768.0	9.937
769.0	7.115
770.0	7.540
771.0	5.787
772.0	7.799
773.0	8.120
774.0	10.38
775.0	11.59
776.0	12.85
777.0	8.114
778.0	6.353
779.0	5.427
780.0	5.173

Sample:	'wa-12(EM)
File name:	100.FDS
Run Date:	'17:31:17, 07/11/2024
Operator:	WXH
Comment:	'

Instrument
Model:	F-4600 FL Spectrophotometer
Serial Number:	3080-002
ROM Version:	5J24000 02

Instrument Parameters
Measurement type:	Wavelength scan
Scan mode:	Emission
Data mode:	Fluorescence
EX WL:	460.0 nm
EM  Start WL:	480.0 nm
EM  End WL:	780.0 nm
Scan speed:	1200 nm/min
Delay:	0.0 s
EX Slit:	2.5 nm
EM Slit:	2.5 nm
PMT Voltage:	600 V
Response:	Auto 
Corrected spectra:	Off
Shutter control:	On

Peak integration
Integration method:	Rectangular
Sensitivity:	1
Threshold:	1.000

Peaks
No.	Valley(nm)	Valley(Data)
1	487.0	18.35
2	511.8	290.5
3	516.4	277.6
4	521.0	251.0
5	530.2	216.6
6	535.4	182.3
7	543.4	154.2
8	546.6	140.4
9	551.0	111.7
10	554.6	98.15
11	557.0	101.9
12	560.2	89.52
13	562.4	78.78
14	564.8	70.72
15	570.6	60.28
16	573.6	56.69
17	578.8	42.32
18	580.2	41.88
19	589.4	30.46
20	594.2	27.78
21	599.6	19.32
22	606.8	16.85
23	609.6	16.32
24	614.8	15.31
25	620.2	13.15
26	623.8	10.28
27	629.2	9.677
28	632.4	12.77
29	634.6	9.948
30	638.4	9.641
31	644.0	10.47
32	646.8	8.537
33	649.0	11.17
34	652.8	6.275
35	656.2	7.706
36	658.8	9.195
37	663.0	8.585
38	665.6	6.461
39	670.0	4.914
40	672.4	8.591
41	677.4	5.039
42	681.4	5.772
43	683.8	6.070
44	686.0	6.662
45	687.6	6.918
46	693.2	6.902
47	695.8	5.934
48	702.0	5.812
49	703.0	6.092
50	705.6	4.386
51	709.0	5.526
52	716.2	3.584
53	719.6	7.062
54	722.0	5.959
55	726.0	6.742
56	727.8	5.289
57	735.2	6.834
58	736.6	7.760
59	739.8	4.160
60	743.8	6.610
61	748.4	4.383
62	750.4	6.175
63	754.6	6.645
64	756.4	6.204
65	764.8	4.602
66	768.8	7.995
67	774.0	6.992
68	775.2	4.884
69	780.0	8.249

Data Points
nm	Data
480.0	4.685
481.0	11.84
482.0	14.61
483.0	18.92
484.0	21.93
485.0	21.35
486.0	19.55
487.0	18.35
488.0	31.09
489.0	33.60
490.0	40.43
491.0	48.33
492.0	54.40
493.0	62.10
494.0	61.24
495.0	80.04
496.0	100.3
497.0	106.5
498.0	109.8
499.0	130.1
500.0	144.6
501.0	172.9
502.0	178.3
503.0	188.4
504.0	230.0
505.0	219.2
506.0	249.5
507.0	272.2
508.0	254.9
509.0	267.4
510.0	302.4
511.0	307.8
512.0	295.6
513.0	297.3
514.0	301.6
515.0	294.4
516.0	292.8
517.0	291.6
518.0	300.7
519.0	282.3
520.0	256.3
521.0	251.0
522.0	256.5
523.0	280.4
524.0	259.9
525.0	253.5
526.0	242.4
527.0	243.2
528.0	237.6
529.0	230.3
530.0	226.5
531.0	223.5
532.0	240.7
533.0	214.1
534.0	209.7
535.0	187.3
536.0	197.2
537.0	195.5
538.0	197.3
539.0	180.1
540.0	176.5
541.0	172.3
542.0	171.3
543.0	166.4
544.0	166.3
545.0	163.1
546.0	150.4
547.0	144.4
548.0	144.6
549.0	146.1
550.0	131.1
551.0	111.7
552.0	129.6
553.0	122.0
554.0	102.9
555.0	104.1
556.0	104.2
557.0	101.9
558.0	105.1
559.0	102.3
560.0	91.47
561.0	95.21
562.0	88.41
563.0	95.21
564.0	84.47
565.0	75.91
566.0	79.94
567.0	83.83
568.0	75.12
569.0	68.63
570.0	62.12
571.0	63.64
572.0	68.29
573.0	60.72
574.0	62.17
575.0	57.51
576.0	53.36
577.0	49.21
578.0	46.08
579.0	46.90
580.0	43.28
581.0	51.06
582.0	49.30
583.0	45.64
584.0	42.16
585.0	48.34
586.0	41.67
587.0	38.62
588.0	38.36
589.0	31.06
590.0	37.89
591.0	34.13
592.0	30.90
593.0	33.17
594.0	32.05
595.0	30.31
596.0	25.67
597.0	24.54
598.0	22.37
599.0	25.70
600.0	21.26
601.0	22.27
602.0	26.35
603.0	24.25
604.0	24.55
605.0	21.88
606.0	18.75
607.0	21.05
608.0	25.71
609.0	17.40
610.0	18.97
611.0	23.15
612.0	18.88
613.0	14.40
614.0	16.95
615.0	17.54
616.0	18.39
617.0	16.50
618.0	15.05
619.0	19.06
620.0	14.50
621.0	14.34
622.0	15.94
623.0	12.33
624.0	14.64
625.0	11.32
626.0	15.14
627.0	15.61
628.0	16.53
629.0	11.17
630.0	12.58
631.0	11.56
632.0	14.70
633.0	15.06
634.0	11.82
635.0	13.02
636.0	15.55
637.0	12.45
638.0	12.18
639.0	12.86
640.0	12.34
641.0	12.45
642.0	13.31
643.0	14.72
644.0	10.47
645.0	13.35
646.0	13.03
647.0	10.38
648.0	13.70
649.0	11.17
650.0	14.01
651.0	12.00
652.0	7.059
653.0	12.42
654.0	9.397
655.0	11.46
656.0	7.809
657.0	8.578
658.0	12.77
659.0	10.11
660.0	13.36
661.0	9.840
662.0	10.11
663.0	8.585
664.0	14.37
665.0	11.73
666.0	6.858
667.0	8.630
668.0	8.930
669.0	10.30
670.0	4.914
671.0	12.29
672.0	10.04
673.0	11.22
674.0	13.47
675.0	8.496
676.0	8.063
677.0	6.126
678.0	5.271
679.0	7.791
680.0	8.906
681.0	7.738
682.0	7.407
683.0	9.281
684.0	6.848
685.0	8.561
686.0	6.662
687.0	9.513
688.0	8.766
689.0	9.570
690.0	12.03
691.0	11.26
692.0	9.034
693.0	8.103
694.0	10.24
695.0	8.835
696.0	7.648
697.0	9.642
698.0	11.97
699.0	11.87
700.0	10.26
701.0	6.613
702.0	5.812
703.0	6.092
704.0	6.410
705.0	7.796
706.0	6.217
707.0	11.72
708.0	10.36
709.0	5.526
710.0	9.536
711.0	11.24
712.0	8.504
713.0	10.50
714.0	8.214
715.0	9.190
716.0	4.718
717.0	10.72
718.0	10.53
719.0	9.194
720.0	7.701
721.0	9.073
722.0	5.959
723.0	10.38
724.0	8.271
725.0	8.361
726.0	6.742
727.0	10.52
728.0	5.918
729.0	6.552
730.0	9.907
731.0	9.590
732.0	10.38
733.0	9.776
734.0	7.825
735.0	6.908
736.0	10.33
737.0	10.57
738.0	11.41
739.0	7.522
740.0	4.591
741.0	6.369
742.0	10.80
743.0	8.849
744.0	9.995
745.0	8.369
746.0	10.15
747.0	5.974
748.0	5.633
749.0	7.552
750.0	7.168
751.0	9.238
752.0	8.848
753.0	5.813
754.0	6.959
755.0	8.723
756.0	9.115
757.0	6.474
758.0	7.456
759.0	8.874
760.0	8.866
761.0	9.545
762.0	12.16
763.0	10.55
764.0	10.16
765.0	5.569
766.0	9.171
767.0	12.09
768.0	11.39
769.0	9.407
770.0	8.944
771.0	10.54
772.0	7.745
773.0	7.874
774.0	6.992
775.0	5.860
776.0	6.824
777.0	8.101
778.0	8.622
779.0	7.563
780.0	8.249

Sample:	'wa-13(EM)
File name:	100.FDS
Run Date:	'17:31:47, 07/11/2024
Operator:	WXH
Comment:	'

Instrument
Model:	F-4600 FL Spectrophotometer
Serial Number:	3080-002
ROM Version:	5J24000 02

Instrument Parameters
Measurement type:	Wavelength scan
Scan mode:	Emission
Data mode:	Fluorescence
EX WL:	460.0 nm
EM  Start WL:	480.0 nm
EM  End WL:	780.0 nm
Scan speed:	1200 nm/min
Delay:	0.0 s
EX Slit:	2.5 nm
EM Slit:	2.5 nm
PMT Voltage:	600 V
Response:	Auto 
Corrected spectra:	Off
Shutter control:	On

Peak integration
Integration method:	Rectangular
Sensitivity:	1
Threshold:	1.000

Peaks
No.	Valley(nm)	Valley(Data)
1	487.0	21.77
2	509.0	264.9
3	511.4	280.0
4	515.4	277.7
5	517.8	270.0
6	525.6	229.0
7	531.0	208.4
8	533.2	210.2
9	538.6	163.9
10	542.8	149.8
11	546.2	142.2
12	548.8	131.4
13	550.4	131.3
14	555.4	94.51
15	556.8	97.31
16	561.2	81.63
17	562.8	74.01
18	565.6	71.52
19	569.8	63.71
20	572.4	61.39
21	575.6	50.14
22	582.2	36.48
23	584.0	33.22
24	586.0	35.40
25	588.4	32.63
26	591.4	31.48
27	595.0	28.23
28	597.8	22.74
29	600.6	19.43
30	605.8	16.63
31	609.0	16.60
32	611.6	15.53
33	615.6	16.82
34	618.0	14.77
35	623.6	14.34
36	629.8	11.56
37	631.8	10.43
38	636.0	7.134
39	640.8	6.321
40	643.6	6.258
41	645.2	8.102
42	647.6	8.118
43	653.2	5.993
44	655.0	8.336
45	657.6	7.324
46	660.0	9.093
47	664.0	7.250
48	667.6	5.486
49	673.6	6.523
50	676.6	8.300
51	679.2	6.250
52	681.4	6.071
53	685.2	5.474
54	686.6	5.188
55	689.2	5.122
56	695.2	8.412
57	697.6	7.848
58	700.4	5.823
59	702.2	8.546
60	704.6	8.434
61	708.2	7.514
62	711.2	7.913
63	713.8	6.583
64	718.2	8.877
65	721.2	5.409
66	727.4	6.527
67	730.4	6.422
68	737.6	4.743
69	742.2	4.723
70	745.2	6.552
71	751.6	6.026
72	754.8	5.146
73	756.4	4.614
74	760.2	5.782
75	761.4	6.815
76	764.0	5.784
77	766.4	9.395
78	769.0	8.823
79	772.6	3.696
80	780.0	6.916

Data Points
nm	Data
480.0	18.06
481.0	15.11
482.0	12.96
483.0	15.00
484.0	16.19
485.0	24.99
486.0	29.58
487.0	21.77
488.0	33.44
489.0	29.34
490.0	38.94
491.0	45.74
492.0	51.30
493.0	59.03
494.0	75.22
495.0	81.25
496.0	84.82
497.0	112.8
498.0	129.3
499.0	128.6
500.0	147.2
501.0	158.6
502.0	187.7
503.0	203.0
504.0	208.5
505.0	223.2
506.0	228.8
507.0	261.5
508.0	275.8
509.0	264.9
510.0	288.0
511.0	295.8
512.0	284.5
513.0	305.9
514.0	309.7
515.0	293.0
516.0	294.8
517.0	301.1
518.0	275.2
519.0	291.2
520.0	277.5
521.0	275.0
522.0	274.4
523.0	268.9
524.0	266.7
525.0	251.7
526.0	250.1
527.0	253.7
528.0	238.3
529.0	247.4
530.0	221.2
531.0	208.4
532.0	221.7
533.0	223.7
534.0	213.2
535.0	210.2
536.0	203.6
537.0	201.0
538.0	176.7
539.0	190.8
540.0	178.6
541.0	173.4
542.0	166.4
543.0	165.9
544.0	163.0
545.0	161.9
546.0	143.8
547.0	156.6
548.0	144.4
549.0	140.7
550.0	136.5
551.0	139.0
552.0	124.5
553.0	109.3
554.0	104.0
555.0	101.9
556.0	99.91
557.0	97.59
558.0	107.0
559.0	91.35
560.0	84.87
561.0	89.46
562.0	91.75
563.0	76.70
564.0	85.35
565.0	76.32
566.0	77.07
567.0	75.17
568.0	76.52
569.0	70.84
570.0	67.45
571.0	64.86
572.0	67.82
573.0	67.06
574.0	61.20
575.0	54.56
576.0	53.09
577.0	55.73
578.0	46.90
579.0	42.07
580.0	44.42
581.0	42.82
582.0	38.98
583.0	42.66
584.0	33.22
585.0	42.29
586.0	35.40
587.0	40.49
588.0	33.68
589.0	38.20
590.0	40.14
591.0	39.18
592.0	35.40
593.0	34.48
594.0	35.94
595.0	28.23
596.0	36.04
597.0	26.98
598.0	26.11
599.0	26.00
600.0	25.84
601.0	23.97
602.0	28.59
603.0	26.67
604.0	28.21
605.0	21.38
606.0	18.26
607.0	20.10
608.0	17.87
609.0	16.60
610.0	21.42
611.0	19.35
612.0	17.79
613.0	20.11
614.0	18.46
615.0	21.33
616.0	20.84
617.0	16.67
618.0	14.77
619.0	15.46
620.0	23.00
621.0	17.09
622.0	18.14
623.0	17.98
624.0	18.10
625.0	19.95
626.0	18.95
627.0	13.02
628.0	15.27
629.0	16.16
630.0	11.70
631.0	14.22
632.0	14.08
633.0	12.35
634.0	8.985
635.0	9.563
636.0	7.134
637.0	8.993
638.0	11.43
639.0	9.711
640.0	9.837
641.0	7.769
642.0	11.78
643.0	9.583
644.0	8.833
645.0	9.821
646.0	10.45
647.0	10.30
648.0	11.62
649.0	12.13
650.0	16.30
651.0	9.984
652.0	7.921
653.0	6.627
654.0	11.39
655.0	8.336
656.0	16.79
657.0	10.39
658.0	9.382
659.0	10.34
660.0	9.093
661.0	10.66
662.0	9.135
663.0	8.885
664.0	7.250
665.0	15.33
666.0	10.52
667.0	6.713
668.0	7.387
669.0	10.18
670.0	9.269
671.0	8.993
672.0	10.72
673.0	8.041
674.0	9.060
675.0	11.81
676.0	10.15
677.0	11.35
678.0	9.338
679.0	6.358
680.0	9.269
681.0	7.628
682.0	14.40
683.0	10.41
684.0	8.198
685.0	6.312
686.0	8.584
687.0	8.707
688.0	10.25
689.0	6.826
690.0	8.523
691.0	14.18
692.0	11.01
693.0	12.09
694.0	9.793
695.0	10.88
696.0	9.672
697.0	10.84
698.0	8.922
699.0	11.93
700.0	9.803
701.0	12.17
702.0	10.70
703.0	10.55
704.0	11.21
705.0	9.938
706.0	9.116
707.0	10.62
708.0	8.470
709.0	9.936
710.0	9.221
711.0	9.217
712.0	11.35
713.0	9.211
714.0	7.275
715.0	10.40
716.0	9.679
717.0	9.816
718.0	10.41
719.0	11.81
720.0	6.960
721.0	6.835
722.0	7.471
723.0	10.34
724.0	10.12
725.0	7.778
726.0	10.37
727.0	9.967
728.0	7.669
729.0	8.163
730.0	8.741
731.0	6.928
732.0	10.07
733.0	9.189
734.0	11.07
735.0	12.47
736.0	7.392
737.0	5.771
738.0	6.024
739.0	8.176
740.0	8.622
741.0	8.070
742.0	7.228
743.0	7.568
744.0	9.153
745.0	7.399
746.0	7.343
747.0	7.682
748.0	10.91
749.0	9.685
750.0	11.32
751.0	11.21
752.0	9.654
753.0	10.75
754.0	7.964
755.0	7.822
756.0	6.420
757.0	7.067
758.0	7.386
759.0	9.836
760.0	6.378
761.0	9.439
762.0	7.498
763.0	9.285
764.0	5.784
765.0	11.41
766.0	10.27
767.0	11.95
768.0	9.703
769.0	8.823
770.0	11.73
771.0	8.182
772.0	5.569
773.0	5.123
774.0	9.254
775.0	9.731
776.0	9.579
777.0	7.357
778.0	6.765
779.0	5.604
780.0	6.916

Sample:	'wa-14(EM)
File name:	100.FDS
Run Date:	'17:32:18, 07/11/2024
Operator:	WXH
Comment:	'

Instrument
Model:	F-4600 FL Spectrophotometer
Serial Number:	3080-002
ROM Version:	5J24000 02

Instrument Parameters
Measurement type:	Wavelength scan
Scan mode:	Emission
Data mode:	Fluorescence
EX WL:	460.0 nm
EM  Start WL:	480.0 nm
EM  End WL:	780.0 nm
Scan speed:	1200 nm/min
Delay:	0.0 s
EX Slit:	2.5 nm
EM Slit:	2.5 nm
PMT Voltage:	600 V
Response:	Auto 
Corrected spectra:	Off
Shutter control:	On

Peak integration
Integration method:	Rectangular
Sensitivity:	1
Threshold:	1.000

Peaks
No.	Valley(nm)	Valley(Data)
1	507.6	249.7
2	510.2	271.0
3	514.8	269.3
4	520.2	256.5
5	522.2	249.3
6	524.8	245.0
7	529.4	219.1
8	538.0	178.7
9	545.4	142.4
10	549.0	130.4
11	559.8	81.63
12	566.2	68.02
13	573.4	51.97
14	581.6	44.46
15	584.2	40.04
16	586.6	35.43
17	593.4	22.73
18	595.2	26.00
19	598.8	23.29
20	601.4	23.80
21	603.2	19.32
22	605.0	18.74
23	607.6	17.73
24	609.4	17.69
25	612.8	17.12
26	617.6	16.11
27	621.0	12.55
28	625.2	9.003
29	632.8	10.83
30	635.4	13.76
31	637.8	8.721
32	642.0	8.655
33	643.6	7.003
34	646.6	10.20
35	649.6	7.805
36	656.2	7.678
37	660.0	4.512
38	661.6	7.293
39	663.4	7.788
40	666.0	7.745
41	668.0	8.552
42	673.2	7.746
43	674.6	7.673
44	678.0	7.330
45	684.6	4.862
46	687.4	8.640
47	689.6	6.245
48	693.0	6.799
49	696.0	7.169
50	698.0	7.323
51	703.4	6.241
52	706.4	7.189
53	709.2	3.457
54	714.0	9.221
55	716.8	7.173
56	720.6	4.671
57	725.6	3.504
58	729.0	6.347
59	731.2	6.005
60	736.4	5.990
61	740.0	4.971
62	744.8	6.194
63	748.4	4.651
64	751.2	5.254
65	753.8	4.639
66	761.4	5.976
67	766.6	6.141
68	770.6	5.061
69	772.8	6.884
70	778.2	4.874

Data Points
nm	Data
480.0	12.49
481.0	14.80
482.0	18.26
483.0	13.42
484.0	24.96
485.0	19.90
486.0	26.50
487.0	27.89
488.0	32.12
489.0	30.63
490.0	32.24
491.0	39.03
492.0	47.22
493.0	63.64
494.0	68.10
495.0	80.46
496.0	91.89
497.0	96.01
498.0	120.3
499.0	127.1
500.0	141.5
501.0	167.6
502.0	184.5
503.0	194.1
504.0	216.1
505.0	225.5
506.0	236.2
507.0	253.4
508.0	263.1
509.0	282.4
510.0	279.4
511.0	303.6
512.0	313.3
513.0	311.5
514.0	306.2
515.0	293.7
516.0	298.4
517.0	293.0
518.0	289.8
519.0	278.8
520.0	271.4
521.0	272.5
522.0	252.6
523.0	267.8
524.0	250.6
525.0	253.2
526.0	265.5
527.0	253.5
528.0	242.5
529.0	227.3
530.0	228.5
531.0	242.7
532.0	219.4
533.0	234.2
534.0	216.4
535.0	210.2
536.0	201.2
537.0	187.1
538.0	178.7
539.0	191.5
540.0	186.7
541.0	189.7
542.0	185.9
543.0	184.5
544.0	165.1
545.0	152.0
546.0	153.7
547.0	146.9
548.0	145.8
549.0	130.4
550.0	133.0
551.0	137.9
552.0	129.7
553.0	129.6
554.0	117.9
555.0	116.0
556.0	101.4
557.0	100.4
558.0	98.73
559.0	89.82
560.0	88.83
561.0	96.15
562.0	84.84
563.0	80.83
564.0	76.87
565.0	81.44
566.0	70.50
567.0	71.02
568.0	73.80
569.0	67.83
570.0	67.54
571.0	62.91
572.0	62.07
573.0	55.70
574.0	64.75
575.0	61.16
576.0	59.63
577.0	60.34
578.0	54.58
579.0	48.37
580.0	51.63
581.0	51.00
582.0	46.99
583.0	47.19
584.0	42.00
585.0	43.64
586.0	42.73
587.0	36.48
588.0	41.81
589.0	39.31
590.0	31.21
591.0	33.70
592.0	28.64
593.0	26.62
594.0	30.04
595.0	26.91
596.0	32.82
597.0	29.56
598.0	29.07
599.0	24.30
600.0	28.47
601.0	25.56
602.0	29.35
603.0	21.90
604.0	27.48
605.0	18.74
606.0	24.46
607.0	20.35
608.0	19.36
609.0	18.40
610.0	20.78
611.0	19.74
612.0	19.36
613.0	18.05
614.0	18.06
615.0	20.31
616.0	18.65
617.0	19.30
618.0	19.18
619.0	19.27
620.0	17.88
621.0	12.55
622.0	20.47
623.0	24.35
624.0	17.02
625.0	9.240
626.0	11.93
627.0	13.78
628.0	15.32
629.0	14.30
630.0	17.78
631.0	13.85
632.0	15.04
633.0	12.38
634.0	16.22
635.0	14.97
636.0	14.54
637.0	13.59
638.0	10.20
639.0	11.43
640.0	11.42
641.0	13.18
642.0	8.655
643.0	10.48
644.0	7.175
645.0	14.80
646.0	11.77
647.0	15.68
648.0	13.08
649.0	9.277
650.0	9.965
651.0	11.39
652.0	11.93
653.0	10.28
654.0	10.68
655.0	10.45
656.0	8.972
657.0	11.38
658.0	16.88
659.0	11.17
660.0	4.512
661.0	11.09
662.0	13.12
663.0	8.807
664.0	11.10
665.0	10.06
666.0	7.745
667.0	10.09
668.0	8.552
669.0	10.84
670.0	9.223
671.0	12.15
672.0	7.942
673.0	9.738
674.0	11.84
675.0	8.041
676.0	10.43
677.0	8.817
678.0	7.330
679.0	12.62
680.0	13.65
681.0	10.38
682.0	9.339
683.0	7.156
684.0	7.401
685.0	7.887
686.0	12.13
687.0	9.394
688.0	12.04
689.0	10.57
690.0	7.989
691.0	9.216
692.0	11.94
693.0	6.799
694.0	8.820
695.0	11.03
696.0	7.169
697.0	11.16
698.0	7.323
699.0	9.540
700.0	8.900
701.0	8.301
702.0	7.219
703.0	8.254
704.0	9.335
705.0	8.659
706.0	7.362
707.0	9.838
708.0	9.307
709.0	4.934
710.0	5.402
711.0	7.223
712.0	9.486
713.0	9.478
714.0	9.221
715.0	13.11
716.0	9.101
717.0	8.471
718.0	7.476
719.0	9.561
720.0	7.420
721.0	5.743
722.0	6.934
723.0	8.928
724.0	9.348
725.0	7.273
726.0	6.019
727.0	8.365
728.0	8.514
729.0	6.347
730.0	7.967
731.0	6.036
732.0	7.862
733.0	9.111
734.0	8.704
735.0	12.92
736.0	8.792
737.0	8.675
738.0	8.001
739.0	7.851
740.0	4.971
741.0	9.282
742.0	10.04
743.0	11.32
744.0	9.592
745.0	7.270
746.0	9.648
747.0	8.403
748.0	6.362
749.0	5.735
750.0	6.801
751.0	5.912
752.0	7.654
753.0	9.305
754.0	7.734
755.0	6.507
756.0	10.48
757.0	11.99
758.0	8.661
759.0	7.348
760.0	7.413
761.0	7.675
762.0	6.387
763.0	11.10
764.0	8.059
765.0	10.41
766.0	7.068
767.0	6.161
768.0	10.10
769.0	8.283
770.0	7.770
771.0	9.823
772.0	9.604
773.0	7.358
774.0	10.07
775.0	10.21
776.0	11.70
777.0	5.956
778.0	5.969
779.0	6.529
780.0	7.308

Sample:	'wa-15(EM)
File name:	100.FDS
Run Date:	'17:32:48, 07/11/2024
Operator:	WXH
Comment:	'

Instrument
Model:	F-4600 FL Spectrophotometer
Serial Number:	3080-002
ROM Version:	5J24000 02

Instrument Parameters
Measurement type:	Wavelength scan
Scan mode:	Emission
Data mode:	Fluorescence
EX WL:	460.0 nm
EM  Start WL:	480.0 nm
EM  End WL:	780.0 nm
Scan speed:	1200 nm/min
Delay:	0.0 s
EX Slit:	2.5 nm
EM Slit:	2.5 nm
PMT Voltage:	600 V
Response:	Auto 
Corrected spectra:	Off
Shutter control:	On

Peak integration
Integration method:	Rectangular
Sensitivity:	1
Threshold:	1.000

Peaks
No.	Valley(nm)	Valley(Data)
1	483.6	12.49
2	508.4	260.0
3	515.6	294.0
4	520.4	269.7
5	527.2	233.3
6	532.8	213.1
7	538.2	182.3
8	539.8	168.7
9	545.4	140.2
10	547.2	131.5
11	550.0	113.7
12	555.6	102.3
13	558.2	93.81
14	567.2	64.97
15	571.8	56.85
16	574.8	45.70
17	583.4	35.37
18	587.2	36.91
19	589.4	35.91
20	591.8	31.38
21	595.2	24.78
22	599.6	20.01
23	601.8	19.54
24	606.0	20.47
25	608.0	16.43
26	609.8	15.54
27	615.6	14.55
28	619.6	11.81
29	624.8	14.23
30	627.0	10.43
31	630.2	10.59
32	634.2	11.83
33	636.4	8.904
34	641.8	6.685
35	647.2	7.636
36	653.6	6.645
37	658.0	8.162
38	659.8	5.892
39	663.4	8.723
40	667.0	7.300
41	669.2	8.268
42	673.4	6.746
43	676.2	6.918
44	678.6	5.717
45	681.8	6.418
46	683.8	7.674
47	688.6	5.247
48	692.6	5.591
49	697.2	8.259
50	698.6	7.497
51	702.8	7.362
52	705.6	6.246
53	711.2	7.666
54	714.6	7.150
55	719.4	7.383
56	721.4	6.582
57	725.4	7.179
58	729.6	7.992
59	733.2	6.784
60	735.2	6.088
61	738.2	7.761
62	741.0	7.006
63	744.8	4.329
64	747.8	4.799
65	749.8	8.360
66	752.4	6.714
67	758.0	7.279
68	760.2	6.406
69	767.2	4.607
70	769.6	5.436
71	773.8	5.190
72	776.8	5.483

Data Points
nm	Data
480.0	11.52
481.0	16.18
482.0	17.44
483.0	15.18
484.0	18.34
485.0	21.08
486.0	22.01
487.0	34.37
488.0	30.35
489.0	41.41
490.0	39.15
491.0	40.35
492.0	53.94
493.0	54.24
494.0	70.61
495.0	77.33
496.0	90.91
497.0	112.1
498.0	103.1
499.0	133.3
500.0	142.8
501.0	176.1
502.0	177.8
503.0	203.6
504.0	218.8
505.0	245.4
506.0	258.6
507.0	258.2
508.0	277.4
509.0	265.7
510.0	273.1
511.0	299.5
512.0	300.4
513.0	296.9
514.0	313.7
515.0	302.1
516.0	300.8
517.0	310.8
518.0	304.4
519.0	282.7
520.0	270.9
521.0	278.0
522.0	272.1
523.0	254.7
524.0	266.1
525.0	242.2
526.0	240.2
527.0	241.1
528.0	241.4
529.0	246.8
530.0	219.5
531.0	213.7
532.0	216.5
533.0	227.8
534.0	226.9
535.0	218.7
536.0	195.6
537.0	200.2
538.0	190.6
539.0	198.9
540.0	170.3
541.0	177.5
542.0	183.2
543.0	163.4
544.0	155.2
545.0	159.3
546.0	157.1
547.0	139.7
548.0	147.4
549.0	135.0
550.0	113.7
551.0	133.4
552.0	128.0
553.0	114.2
554.0	112.5
555.0	104.5
556.0	110.3
557.0	106.8
558.0	94.90
559.0	106.5
560.0	108.4
561.0	94.96
562.0	85.69
563.0	79.32
564.0	80.24
565.0	72.83
566.0	70.28
567.0	67.69
568.0	73.11
569.0	78.93
570.0	64.47
571.0	63.62
572.0	61.15
573.0	63.59
574.0	58.54
575.0	47.14
576.0	55.15
577.0	59.14
578.0	57.99
579.0	47.65
580.0	49.20
581.0	47.30
582.0	48.68
583.0	37.41
584.0	42.35
585.0	44.87
586.0	39.72
587.0	37.86
588.0	42.08
589.0	38.66
590.0	38.13
591.0	41.16
592.0	31.87
593.0	33.95
594.0	34.74
595.0	28.27
596.0	30.47
597.0	28.63
598.0	29.56
599.0	29.99
600.0	22.75
601.0	25.39
602.0	21.78
603.0	26.40
604.0	25.68
605.0	21.82
606.0	20.47
607.0	24.38
608.0	16.43
609.0	21.80
610.0	16.42
611.0	21.75
612.0	19.89
613.0	18.81
614.0	20.96
615.0	18.45
616.0	15.95
617.0	20.57
618.0	17.26
619.0	12.82
620.0	14.40
621.0	15.78
622.0	17.49
623.0	15.84
624.0	15.11
625.0	16.52
626.0	14.29
627.0	10.43
628.0	16.22
629.0	14.65
630.0	11.42
631.0	15.85
632.0	14.45
633.0	18.35
634.0	13.89
635.0	11.98
636.0	11.52
637.0	14.51
638.0	15.15
639.0	11.10
640.0	11.24
641.0	9.494
642.0	13.01
643.0	12.86
644.0	13.01
645.0	10.92
646.0	8.590
647.0	8.728
648.0	10.20
649.0	12.01
650.0	12.42
651.0	12.15
652.0	9.327
653.0	6.538
654.0	8.473
655.0	10.63
656.0	13.20
657.0	9.415
658.0	8.162
659.0	8.906
660.0	6.929
661.0	9.358
662.0	10.00
663.0	9.358
664.0	10.34
665.0	11.89
666.0	10.35
667.0	7.300
668.0	11.72
669.0	10.87
670.0	10.84
671.0	10.07
672.0	9.404
673.0	7.946
674.0	7.966
675.0	13.03
676.0	9.214
677.0	12.36
678.0	11.70
679.0	10.89
680.0	10.57
681.0	11.94
682.0	9.473
683.0	11.91
684.0	10.36
685.0	11.75
686.0	14.26
687.0	7.721
688.0	5.655
689.0	8.539
690.0	8.968
691.0	9.580
692.0	5.795
693.0	7.528
694.0	9.180
695.0	10.39
696.0	8.412
697.0	8.282
698.0	12.13
699.0	8.223
700.0	9.829
701.0	11.73
702.0	10.97
703.0	7.378
704.0	11.14
705.0	7.031
706.0	6.517
707.0	7.846
708.0	7.803
709.0	7.537
710.0	9.130
711.0	9.355
712.0	10.40
713.0	8.306
714.0	8.600
715.0	8.903
716.0	9.826
717.0	8.776
718.0	9.475
719.0	10.68
720.0	9.000
721.0	7.860
722.0	7.844
723.0	8.992
724.0	9.116
725.0	7.808
726.0	7.855
727.0	10.85
728.0	9.441
729.0	9.002
730.0	10.67
731.0	12.02
732.0	11.97
733.0	8.811
734.0	8.900
735.0	8.546
736.0	8.868
737.0	9.699
738.0	9.285
739.0	10.66
740.0	9.809
741.0	7.006
742.0	8.964
743.0	6.680
744.0	6.491
745.0	4.614
746.0	7.141
747.0	5.421
748.0	4.986
749.0	7.715
750.0	9.086
751.0	11.33
752.0	7.792
753.0	9.607
754.0	10.73
755.0	9.106
756.0	9.509
757.0	9.284
758.0	7.279
759.0	13.18
760.0	7.517
761.0	8.363
762.0	11.22
763.0	11.70
764.0	5.426
765.0	6.046
766.0	6.008
767.0	5.975
768.0	8.438
769.0	6.566
770.0	6.329
771.0	8.617
772.0	7.962
773.0	5.352
774.0	5.876
775.0	11.94
776.0	10.29
777.0	5.613
778.0	8.479
779.0	7.307
780.0	11.20

Sample:	'wa-16(EM)
File name:	100.FDS
Run Date:	'17:33:18, 07/11/2024
Operator:	WXH
Comment:	'

Instrument
Model:	F-4600 FL Spectrophotometer
Serial Number:	3080-002
ROM Version:	5J24000 02

Instrument Parameters
Measurement type:	Wavelength scan
Scan mode:	Emission
Data mode:	Fluorescence
EX WL:	460.0 nm
EM  Start WL:	480.0 nm
EM  End WL:	780.0 nm
Scan speed:	1200 nm/min
Delay:	0.0 s
EX Slit:	2.5 nm
EM Slit:	2.5 nm
PMT Voltage:	600 V
Response:	Auto 
Corrected spectra:	Off
Shutter control:	On

Peak integration
Integration method:	Rectangular
Sensitivity:	1
Threshold:	1.000

Peaks
No.	Valley(nm)	Valley(Data)
1	486.4	20.95
2	510.4	266.6
3	515.0	273.3
4	518.6	240.4
5	521.4	263.5
6	524.8	238.8
7	532.2	208.1
8	535.2	202.2
9	541.4	163.9
10	546.2	140.4
11	549.4	124.4
12	551.0	114.4
13	554.2	105.5
14	557.6	92.12
15	560.0	83.73
16	562.8	75.14
17	567.4	65.57
18	570.4	58.81
19	580.4	41.44
20	583.4	35.08
21	585.8	34.90
22	589.2	31.94
23	595.4	24.36
24	598.2	25.24
25	602.2	20.82
26	605.8	17.96
27	609.6	19.39
28	614.2	16.31
29	617.2	14.95
30	619.4	16.05
31	623.2	12.73
32	624.4	13.61
33	627.2	12.94
34	631.2	9.710
35	635.2	5.870
36	639.6	9.388
37	644.0	7.057
38	647.2	7.093
39	651.4	8.847
40	652.8	8.458
41	654.6	9.029
42	657.0	7.466
43	658.0	6.810
44	662.0	5.582
45	664.8	6.619
46	670.6	9.844
47	673.8	4.890
48	676.8	6.515
49	679.2	7.903
50	681.2	5.723
51	686.6	8.080
52	689.4	6.345
53	692.0	4.526
54	695.4	5.952
55	698.0	5.456
56	700.8	4.470
57	708.2	3.345
58	711.6	4.356
59	714.0	5.262
60	716.8	9.116
61	719.0	8.402
62	728.4	3.616
63	732.6	5.814
64	736.2	6.570
65	739.0	5.819
66	746.4	6.738
67	749.8	4.380
68	754.2	6.310
69	758.2	6.662
70	761.6	8.361
71	764.0	5.939
72	768.0	5.956
73	773.2	6.197
74	780.0	9.448

Data Points
nm	Data
480.0	19.58
481.0	15.25
482.0	17.92
483.0	18.12
484.0	20.73
485.0	21.07
486.0	24.01
487.0	21.15
488.0	22.92
489.0	26.00
490.0	38.81
491.0	46.12
492.0	43.75
493.0	60.04
494.0	60.84
495.0	80.41
496.0	80.99
497.0	103.0
498.0	114.9
499.0	127.2
500.0	154.1
501.0	156.1
502.0	170.5
503.0	191.2
504.0	206.8
505.0	232.1
506.0	228.7
507.0	254.4
508.0	275.2
509.0	284.5
510.0	284.0
511.0	297.1
512.0	288.4
513.0	306.8
514.0	284.6
515.0	273.3
516.0	297.0
517.0	279.9
518.0	270.9
519.0	242.7
520.0	280.9
521.0	270.2
522.0	296.2
523.0	270.8
524.0	252.0
525.0	247.5
526.0	251.1
527.0	245.6
528.0	241.4
529.0	237.7
530.0	228.1
531.0	221.8
532.0	215.7
533.0	210.8
534.0	232.1
535.0	208.4
536.0	213.6
537.0	214.2
538.0	198.8
539.0	186.8
540.0	182.7
541.0	170.7
542.0	175.8
543.0	171.9
544.0	166.2
545.0	151.3
546.0	148.8
547.0	156.3
548.0	154.2
549.0	128.7
550.0	133.2
551.0	114.4
552.0	136.3
553.0	127.4
554.0	113.8
555.0	121.2
556.0	114.6
557.0	98.28
558.0	101.5
559.0	104.8
560.0	83.73
561.0	89.09
562.0	80.56
563.0	76.56
564.0	82.52
565.0	79.91
566.0	69.73
567.0	69.75
568.0	72.53
569.0	68.57
570.0	60.98
571.0	63.80
572.0	57.99
573.0	54.60
574.0	55.26
575.0	52.61
576.0	52.51
577.0	49.76
578.0	49.91
579.0	45.10
580.0	42.53
581.0	43.29
582.0	39.37
583.0	38.30
584.0	41.06
585.0	44.40
586.0	36.15
587.0	42.47
588.0	37.55
589.0	34.95
590.0	39.29
591.0	38.56
592.0	39.95
593.0	34.45
594.0	31.57
595.0	26.11
596.0	29.05
597.0	32.69
598.0	26.33
599.0	30.17
600.0	24.54
601.0	23.52
602.0	22.04
603.0	28.05
604.0	29.71
605.0	22.09
606.0	20.33
607.0	19.59
608.0	21.41
609.0	27.10
610.0	21.28
611.0	21.84
612.0	23.21
613.0	25.57
614.0	17.22
615.0	22.43
616.0	22.85
617.0	18.10
618.0	19.53
619.0	18.95
620.0	20.32
621.0	20.93
622.0	17.70
623.0	14.27
624.0	17.55
625.0	15.37
626.0	14.96
627.0	15.22
628.0	17.81
629.0	18.39
630.0	16.51
631.0	12.40
632.0	11.83
633.0	8.885
634.0	11.15
635.0	6.599
636.0	11.40
637.0	11.71
638.0	12.78
639.0	10.57
640.0	12.30
641.0	12.92
642.0	12.49
643.0	12.59
644.0	7.057
645.0	10.50
646.0	11.36
647.0	7.197
648.0	13.32
649.0	11.36
650.0	11.45
651.0	9.021
652.0	11.53
653.0	8.976
654.0	12.42
655.0	9.297
656.0	10.00
657.0	7.466
658.0	6.810
659.0	12.63
660.0	10.60
661.0	8.999
662.0	5.582
663.0	10.67
664.0	8.236
665.0	8.259
666.0	10.26
667.0	12.80
668.0	10.19
669.0	9.888
670.0	10.10
671.0	12.41
672.0	9.264
673.0	11.34
674.0	6.440
675.0	9.923
676.0	9.268
677.0	7.950
678.0	10.58
679.0	8.498
680.0	11.84
681.0	7.876
682.0	12.92
683.0	12.84
684.0	12.65
685.0	12.99
686.0	11.67
687.0	9.993
688.0	10.38
689.0	6.912
690.0	12.26
691.0	9.347
692.0	4.526
693.0	7.296
694.0	12.37
695.0	9.070
696.0	8.811
697.0	8.377
698.0	5.456
699.0	10.99
700.0	11.72
701.0	6.721
702.0	10.56
703.0	12.07
704.0	13.69
705.0	10.08
706.0	7.319
707.0	7.172
708.0	4.128
709.0	6.608
710.0	7.067
711.0	5.217
712.0	7.935
713.0	8.976
714.0	5.262
715.0	9.690
716.0	10.83
717.0	10.56
718.0	11.88
719.0	8.402
720.0	11.10
721.0	8.548
722.0	6.802
723.0	8.908
724.0	8.083
725.0	6.277
726.0	7.098
727.0	4.919
728.0	6.178
729.0	7.413
730.0	11.08
731.0	8.539
732.0	7.214
733.0	11.32
734.0	8.595
735.0	8.031
736.0	7.042
737.0	9.555
738.0	6.146
739.0	5.819
740.0	8.024
741.0	10.19
742.0	9.592
743.0	11.33
744.0	10.30
745.0	9.840
746.0	8.261
747.0	9.970
748.0	9.129
749.0	7.798
750.0	5.347
751.0	7.507
752.0	6.971
753.0	6.481
754.0	8.087
755.0	11.91
756.0	11.82
757.0	9.511
758.0	7.066
759.0	8.947
760.0	8.560
761.0	11.42
762.0	8.610
763.0	9.495
764.0	5.939
765.0	9.861
766.0	9.221
767.0	11.06
768.0	5.956
769.0	9.576
770.0	10.09
771.0	10.55
772.0	6.243
773.0	7.005
774.0	6.778
775.0	9.949
776.0	9.082
777.0	9.639
778.0	5.609
779.0	5.805
780.0	9.448

Sample:	'wa-17(EM)
File name:	100.FDS
Run Date:	'17:33:48, 07/11/2024
Operator:	WXH
Comment:	'

Instrument
Model:	F-4600 FL Spectrophotometer
Serial Number:	3080-002
ROM Version:	5J24000 02

Instrument Parameters
Measurement type:	Wavelength scan
Scan mode:	Emission
Data mode:	Fluorescence
EX WL:	460.0 nm
EM  Start WL:	480.0 nm
EM  End WL:	780.0 nm
Scan speed:	1200 nm/min
Delay:	0.0 s
EX Slit:	2.5 nm
EM Slit:	2.5 nm
PMT Voltage:	600 V
Response:	Auto 
Corrected spectra:	Off
Shutter control:	On

Peak integration
Integration method:	Rectangular
Sensitivity:	1
Threshold:	1.000

Peaks
No.	Valley(nm)	Valley(Data)
1	507.8	263.3
2	512.4	272.6
3	514.6	276.2
4	518.2	277.5
5	525.6	229.1
6	527.2	222.8
7	528.8	215.0
8	540.6	169.2
9	545.8	140.0
10	550.4	126.0
11	555.6	96.78
12	560.6	84.36
13	564.0	68.41
14	573.8	53.71
15	577.0	47.75
16	585.0	36.50
17	586.8	35.93
18	590.8	27.91
19	596.6	27.45
20	597.8	26.31
21	600.0	23.73
22	602.4	25.47
23	604.6	18.58
24	608.4	19.66
25	613.4	15.44
26	618.6	14.77
27	624.4	8.591
28	628.6	9.268
29	634.0	9.958
30	637.6	9.396
31	640.4	6.601
32	643.8	11.48
33	652.2	6.129
34	655.0	6.879
35	657.4	8.415
36	662.8	6.268
37	666.6	7.694
38	669.0	6.267
39	673.6	8.799
40	675.6	6.630
41	681.2	7.039
42	683.4	6.528
43	687.4	9.144
44	690.6	7.573
45	693.4	7.694
46	694.8	6.986
47	697.0	6.055
48	699.8	5.068
49	701.4	5.362
50	704.8	5.049
51	708.2	7.213
52	714.0	5.148
53	717.2	4.845
54	721.6	4.910
55	723.2	7.723
56	726.4	6.176
57	728.2	7.025
58	732.4	6.751
59	737.6	7.531
60	740.4	6.794
61	742.8	5.730
62	746.8	4.570
63	749.2	5.492
64	750.8	6.327
65	753.0	6.123
66	755.4	5.338
67	760.6	8.176
68	763.0	6.460
69	764.8	7.020
70	767.8	5.676
71	771.8	6.980
72	774.0	6.747
73	776.0	6.527
74	780.0	9.007

Data Points
nm	Data
480.0	7.477
481.0	15.36
482.0	16.08
483.0	15.76
484.0	18.87
485.0	21.23
486.0	24.75
487.0	22.25
488.0	27.75
489.0	30.63
490.0	36.60
491.0	43.79
492.0	49.32
493.0	54.79
494.0	69.34
495.0	76.27
496.0	85.90
497.0	102.5
498.0	124.1
499.0	126.7
500.0	151.3
501.0	160.4
502.0	173.7
503.0	194.7
504.0	227.2
505.0	224.3
506.0	244.9
507.0	273.2
508.0	266.6
509.0	289.5
510.0	294.8
511.0	294.2
512.0	281.1
513.0	283.9
514.0	292.2
515.0	282.9
516.0	285.4
517.0	283.0
518.0	282.6
519.0	293.1
520.0	298.3
521.0	268.7
522.0	267.2
523.0	257.4
524.0	257.5
525.0	247.5
526.0	237.3
527.0	228.6
528.0	250.3
529.0	225.1
530.0	225.3
531.0	237.4
532.0	234.8
533.0	220.7
534.0	206.1
535.0	205.7
536.0	194.1
537.0	192.8
538.0	185.1
539.0	177.1
540.0	183.1
541.0	176.3
542.0	174.7
543.0	160.3
544.0	162.3
545.0	146.1
546.0	151.5
547.0	148.0
548.0	148.5
549.0	130.1
550.0	133.0
551.0	132.2
552.0	137.6
553.0	134.8
554.0	116.0
555.0	99.79
556.0	101.8
557.0	110.0
558.0	98.85
559.0	93.27
560.0	93.17
561.0	98.46
562.0	99.19
563.0	88.57
564.0	68.41
565.0	84.69
566.0	80.28
567.0	77.50
568.0	66.84
569.0	67.46
570.0	65.74
571.0	65.11
572.0	58.63
573.0	57.69
574.0	57.65
575.0	57.93
576.0	49.00
577.0	47.75
578.0	55.01
579.0	50.81
580.0	48.77
581.0	48.83
582.0	42.58
583.0	42.33
584.0	43.11
585.0	36.50
586.0	39.93
587.0	36.80
588.0	40.21
589.0	37.39
590.0	33.69
591.0	30.42
592.0	29.11
593.0	36.87
594.0	29.67
595.0	30.21
596.0	28.48
597.0	32.26
598.0	27.26
599.0	28.62
600.0	23.73
601.0	28.20
602.0	31.43
603.0	26.73
604.0	22.72
605.0	22.05
606.0	24.51
607.0	25.78
608.0	20.62
609.0	26.55
610.0	20.74
611.0	16.55
612.0	15.50
613.0	15.74
614.0	17.99
615.0	18.59
616.0	19.99
617.0	19.49
618.0	16.50
619.0	15.00
620.0	17.10
621.0	18.09
622.0	15.67
623.0	12.72
624.0	13.53
625.0	13.41
626.0	13.67
627.0	16.33
628.0	17.00
629.0	11.89
630.0	14.58
631.0	17.00
632.0	15.65
633.0	14.51
634.0	9.958
635.0	13.85
636.0	11.83
637.0	13.20
638.0	11.93
639.0	14.10
640.0	10.40
641.0	13.05
642.0	13.83
643.0	14.47
644.0	13.21
645.0	14.96
646.0	12.11
647.0	9.909
648.0	9.784
649.0	12.19
650.0	9.939
651.0	8.152
652.0	8.077
653.0	7.675
654.0	8.995
655.0	6.879
656.0	10.96
657.0	8.971
658.0	10.38
659.0	9.830
660.0	9.627
661.0	8.517
662.0	8.526
663.0	7.154
664.0	8.979
665.0	9.643
666.0	9.624
667.0	8.760
668.0	8.988
669.0	6.267
670.0	13.17
671.0	12.18
672.0	12.84
673.0	12.18
674.0	9.388
675.0	11.28
676.0	10.24
677.0	13.01
678.0	9.131
679.0	11.11
680.0	9.204
681.0	9.512
682.0	8.512
683.0	8.018
684.0	7.941
685.0	7.714
686.0	13.10
687.0	10.82
688.0	9.499
689.0	10.19
690.0	10.53
691.0	9.106
692.0	10.63
693.0	9.224
694.0	9.142
695.0	8.870
696.0	11.11
697.0	6.055
698.0	8.864
699.0	6.862
700.0	6.053
701.0	7.067
702.0	8.850
703.0	6.705
704.0	7.196
705.0	5.247
706.0	9.278
707.0	9.701
708.0	8.467
709.0	9.803
710.0	12.24
711.0	11.85
712.0	9.665
713.0	5.832
714.0	5.148
715.0	8.215
716.0	7.595
717.0	6.454
718.0	7.220
719.0	8.354
720.0	7.918
721.0	9.541
722.0	8.746
723.0	9.408
724.0	9.036
725.0	9.923
726.0	8.474
727.0	7.975
728.0	8.284
729.0	10.93
730.0	8.677
731.0	7.688
732.0	8.736
733.0	9.741
734.0	9.100
735.0	9.711
736.0	9.354
737.0	9.781
738.0	10.53
739.0	8.154
740.0	8.452
741.0	9.400
742.0	9.722
743.0	7.160
744.0	8.745
745.0	9.146
746.0	10.13
747.0	6.292
748.0	11.85
749.0	6.937
750.0	8.467
751.0	7.240
752.0	8.690
753.0	6.123
754.0	10.31
755.0	5.424
756.0	6.746
757.0	11.25
758.0	6.584
759.0	9.511
760.0	9.959
761.0	11.14
762.0	9.971
763.0	6.460
764.0	11.64
765.0	8.398
766.0	9.386
767.0	10.67
768.0	7.922
769.0	12.45
770.0	9.906
771.0	7.469
772.0	9.054
773.0	9.277
774.0	6.747
775.0	10.33
776.0	6.527
777.0	6.916
778.0	9.098
779.0	11.21
780.0	9.007

Sample:	'wa-18(EM)
File name:	100.FDS
Run Date:	'17:34:19, 07/11/2024
Operator:	WXH
Comment:	'

Instrument
Model:	F-4600 FL Spectrophotometer
Serial Number:	3080-002
ROM Version:	5J24000 02

Instrument Parameters
Measurement type:	Wavelength scan
Scan mode:	Emission
Data mode:	Fluorescence
EX WL:	460.0 nm
EM  Start WL:	480.0 nm
EM  End WL:	780.0 nm
Scan speed:	1200 nm/min
Delay:	0.0 s
EX Slit:	2.5 nm
EM Slit:	2.5 nm
PMT Voltage:	600 V
Response:	Auto 
Corrected spectra:	Off
Shutter control:	On

Peak integration
Integration method:	Rectangular
Sensitivity:	1
Threshold:	1.000

Peaks
No.	Valley(nm)	Valley(Data)
1	485.2	15.85
2	493.0	46.39
3	512.8	264.8
4	517.8	278.2
5	520.8	270.4
6	523.4	259.7
7	525.8	230.9
8	528.0	238.7
9	530.0	219.8
10	537.6	175.7
11	547.4	127.2
12	555.6	106.0
13	562.2	75.91
14	565.2	75.78
15	567.6	67.95
16	572.4	50.09
17	574.4	52.88
18	576.4	51.52
19	582.0	40.06
20	586.2	33.69
21	591.6	26.79
22	595.6	28.51
23	598.0	22.07
24	603.6	24.98
25	604.8	22.36
26	606.6	21.01
27	609.8	17.98
28	613.4	15.35
29	615.6	15.55
30	620.2	14.61
31	624.0	11.16
32	625.6	14.28
33	630.6	10.50
34	633.4	10.50
35	637.2	8.432
36	640.6	7.842
37	642.4	9.350
38	648.6	6.586
39	650.2	8.614
40	653.6	7.633
41	657.4	7.491
42	661.4	6.662
43	666.0	4.228
44	669.2	6.957
45	671.0	7.286
46	674.4	7.331
47	683.2	5.757
48	684.6	6.141
49	686.6	5.536
50	690.8	5.371
51	695.2	7.003
52	698.2	6.986
53	700.8	5.539
54	702.6	6.774
55	705.8	6.346
56	708.2	4.537
57	711.0	8.684
58	713.6	7.979
59	717.6	8.296
60	719.0	8.954
61	721.4	5.084
62	725.8	6.885
63	729.0	5.546
64	730.6	7.209
65	733.4	5.111
66	736.4	7.215
67	738.4	8.522
68	741.8	6.077
69	744.4	7.334
70	747.6	6.984
71	749.2	6.847
72	751.8	6.999
73	754.2	6.669
74	757.2	5.932
75	762.4	4.060
76	768.0	6.627
77	772.2	6.410
78	776.4	7.379
79	780.0	5.660

Data Points
nm	Data
480.0	13.48
481.0	14.44
482.0	17.02
483.0	17.14
484.0	20.76
485.0	20.60
486.0	24.47
487.0	21.86
488.0	26.56
489.0	29.87
490.0	42.98
491.0	40.78
492.0	54.11
493.0	46.39
494.0	68.30
495.0	78.01
496.0	77.38
497.0	104.3
498.0	115.8
499.0	132.3
500.0	136.8
501.0	170.5
502.0	163.3
503.0	197.1
504.0	215.1
505.0	217.8
506.0	240.1
507.0	259.5
508.0	272.0
509.0	275.6
510.0	287.9
511.0	299.3
512.0	277.0
513.0	271.4
514.0	304.1
515.0	297.4
516.0	294.1
517.0	279.3
518.0	283.0
519.0	287.7
520.0	281.9
521.0	271.5
522.0	276.9
523.0	276.3
524.0	262.5
525.0	266.0
526.0	232.6
527.0	255.8
528.0	238.7
529.0	252.0
530.0	219.8
531.0	232.9
532.0	223.8
533.0	222.6
534.0	200.6
535.0	207.0
536.0	194.7
537.0	183.2
538.0	178.1
539.0	188.4
540.0	184.0
541.0	171.3
542.0	177.1
543.0	170.1
544.0	153.7
545.0	149.1
546.0	149.8
547.0	144.7
548.0	139.9
549.0	140.3
550.0	139.4
551.0	134.9
552.0	135.8
553.0	124.1
554.0	121.5
555.0	111.7
556.0	107.0
557.0	109.3
558.0	113.8
559.0	95.15
560.0	91.44
561.0	83.45
562.0	79.56
563.0	85.36
564.0	81.16
565.0	77.61
566.0	83.40
567.0	75.09
568.0	72.63
569.0	82.00
570.0	69.96
571.0	64.68
572.0	57.11
573.0	61.91
574.0	53.65
575.0	60.68
576.0	54.37
577.0	52.34
578.0	54.45
579.0	47.77
580.0	42.53
581.0	44.01
582.0	40.06
583.0	45.81
584.0	46.08
585.0	39.57
586.0	37.47
587.0	36.18
588.0	37.72
589.0	38.84
590.0	36.06
591.0	26.84
592.0	31.86
593.0	34.76
594.0	36.17
595.0	30.19
596.0	32.65
597.0	31.84
598.0	22.07
599.0	32.15
600.0	27.38
601.0	26.21
602.0	29.07
603.0	25.62
604.0	27.50
605.0	23.94
606.0	25.11
607.0	21.83
608.0	23.76
609.0	28.74
610.0	20.43
611.0	23.99
612.0	20.95
613.0	17.33
614.0	18.00
615.0	18.86
616.0	19.04
617.0	19.60
618.0	20.30
619.0	19.00
620.0	15.31
621.0	19.44
622.0	14.67
623.0	13.94
624.0	11.16
625.0	18.63
626.0	15.30
627.0	16.80
628.0	16.28
629.0	13.88
630.0	11.34
631.0	16.04
632.0	18.50
633.0	15.43
634.0	14.80
635.0	15.78
636.0	9.750
637.0	9.636
638.0	12.82
639.0	13.31
640.0	9.075
641.0	9.949
642.0	11.19
643.0	11.25
644.0	10.39
645.0	9.736
646.0	13.16
647.0	10.01
648.0	7.803
649.0	12.26
650.0	8.927
651.0	11.59
652.0	10.26
653.0	12.38
654.0	10.34
655.0	12.02
656.0	11.70
657.0	9.027
658.0	8.190
659.0	14.00
660.0	14.41
661.0	7.689
662.0	8.911
663.0	11.60
664.0	9.005
665.0	8.840
666.0	4.228
667.0	11.98
668.0	8.378
669.0	7.375
670.0	9.496
671.0	7.286
672.0	8.616
673.0	10.41
674.0	8.784
675.0	9.279
676.0	11.18
677.0	9.233
678.0	11.65
679.0	9.736
680.0	12.38
681.0	8.924
682.0	8.631
683.0	8.131
684.0	9.480
685.0	8.727
686.0	7.315
687.0	6.682
688.0	9.641
689.0	8.125
690.0	7.257
691.0	5.973
692.0	9.569
693.0	11.43
694.0	11.70
695.0	7.201
696.0	9.739
697.0	9.203
698.0	8.638
699.0	9.459
700.0	8.827
701.0	7.301
702.0	7.050
703.0	8.306
704.0	7.892
705.0	9.053
706.0	7.293
707.0	11.02
708.0	6.089
709.0	7.611
710.0	12.32
711.0	8.684
712.0	8.282
713.0	10.22
714.0	10.24
715.0	9.928
716.0	9.107
717.0	10.36
718.0	12.26
719.0	8.954
720.0	13.26
721.0	6.975
722.0	10.65
723.0	10.67
724.0	7.199
725.0	8.617
726.0	8.262
727.0	11.58
728.0	8.506
729.0	5.546
730.0	9.443
731.0	7.688
732.0	9.116
733.0	8.082
734.0	9.216
735.0	7.750
736.0	11.45
737.0	10.29
738.0	10.20
739.0	9.313
740.0	8.914
741.0	9.802
742.0	7.524
743.0	9.686
744.0	10.95
745.0	8.620
746.0	8.414
747.0	9.246
748.0	7.573
749.0	6.984
750.0	10.50
751.0	11.26
752.0	7.112
753.0	8.675
754.0	7.318
755.0	8.103
756.0	10.69
757.0	6.908
758.0	8.619
759.0	13.05
760.0	6.327
761.0	9.129
762.0	5.903
763.0	7.645
764.0	8.349
765.0	9.842
766.0	8.794
767.0	8.703
768.0	6.627
769.0	9.659
770.0	10.45
771.0	9.398
772.0	8.045
773.0	7.883
774.0	11.01
775.0	11.43
776.0	8.114
777.0	7.406
778.0	12.39
779.0	11.90
780.0	5.660

Sample:	'wa-19(EM)
File name:	100.FDS
Run Date:	'17:34:49, 07/11/2024
Operator:	WXH
Comment:	'

Instrument
Model:	F-4600 FL Spectrophotometer
Serial Number:	3080-002
ROM Version:	5J24000 02

Instrument Parameters
Measurement type:	Wavelength scan
Scan mode:	Emission
Data mode:	Fluorescence
EX WL:	460.0 nm
EM  Start WL:	480.0 nm
EM  End WL:	780.0 nm
Scan speed:	1200 nm/min
Delay:	0.0 s
EX Slit:	2.5 nm
EM Slit:	2.5 nm
PMT Voltage:	600 V
Response:	Auto 
Corrected spectra:	Off
Shutter control:	On

Peak integration
Integration method:	Rectangular
Sensitivity:	1
Threshold:	1.000

Peaks
No.	Valley(nm)	Valley(Data)
1	480.8	11.96
2	490.6	32.67
3	497.4	100.0
4	508.6	264.0
5	512.8	280.0
6	515.4	284.7
7	518.6	252.9
8	519.4	253.2
9	524.2	244.1
10	530.4	211.2
11	542.0	162.0
12	544.4	153.5
13	547.0	136.1
14	551.2	123.8
15	558.4	93.52
16	561.6	82.65
17	565.6	65.63
18	570.0	58.04
19	572.8	55.83
20	575.8	45.92
21	578.0	49.32
22	584.2	36.39
23	587.2	33.52
24	590.0	30.29
25	596.4	25.90
26	600.2	20.33
27	604.8	21.30
28	608.8	16.06
29	611.8	15.68
30	613.8	12.58
31	616.6	19.70
32	626.6	11.23
33	629.4	14.98
34	631.2	15.07
35	634.4	9.612
36	638.4	7.884
37	646.4	10.50
38	652.8	7.255
39	655.0	9.904
40	658.0	10.39
41	661.4	7.443
42	663.8	7.572
43	666.8	6.672
44	669.6	9.104
45	675.4	4.891
46	677.6	7.644
47	679.6	7.083
48	681.4	6.697
49	683.0	8.659
50	688.2	5.064
51	691.2	5.406
52	694.0	4.945
53	697.2	4.593
54	701.2	6.538
55	705.2	5.479
56	708.6	5.380
57	710.6	6.498
58	716.0	8.593
59	718.6	6.574
60	722.2	6.147
61	727.8	4.065
62	731.8	7.038
63	733.6	6.264
64	740.4	6.477
65	744.8	5.353
66	749.4	4.105
67	756.0	4.622
68	761.0	6.752
69	770.8	4.900
70	773.0	6.897
71	775.8	5.794
72	778.6	6.848

Data Points
nm	Data
480.0	18.28
481.0	15.65
482.0	15.16
483.0	16.92
484.0	18.46
485.0	20.41
486.0	24.77
487.0	23.08
488.0	28.10
489.0	33.15
490.0	38.38
491.0	47.48
492.0	46.66
493.0	57.33
494.0	66.12
495.0	68.07
496.0	101.8
497.0	106.1
498.0	118.0
499.0	127.2
500.0	158.1
501.0	160.8
502.0	181.6
503.0	201.0
504.0	218.6
505.0	221.3
506.0	230.9
507.0	280.2
508.0	266.6
509.0	276.4
510.0	293.1
511.0	279.5
512.0	281.4
513.0	281.8
514.0	299.5
515.0	296.6
516.0	308.9
517.0	290.1
518.0	256.3
519.0	274.4
520.0	261.9
521.0	284.0
522.0	264.9
523.0	259.9
524.0	250.3
525.0	250.0
526.0	249.9
527.0	244.5
528.0	247.3
529.0	242.2
530.0	231.4
531.0	220.4
532.0	221.4
533.0	203.0
534.0	208.7
535.0	201.2
536.0	194.0
537.0	195.1
538.0	188.6
539.0	179.8
540.0	181.4
541.0	173.9
542.0	162.0
543.0	168.4
544.0	159.2
545.0	163.2
546.0	149.2
547.0	136.1
548.0	147.9
549.0	149.4
550.0	140.4
551.0	135.9
552.0	124.5
553.0	123.3
554.0	115.0
555.0	111.2
556.0	111.0
557.0	101.7
558.0	97.32
559.0	105.7
560.0	99.73
561.0	100.5
562.0	92.15
563.0	88.54
564.0	87.52
565.0	82.80
566.0	66.68
567.0	77.34
568.0	71.15
569.0	61.39
570.0	58.04
571.0	62.97
572.0	64.66
573.0	58.70
574.0	61.72
575.0	53.53
576.0	48.99
577.0	59.74
578.0	49.32
579.0	57.38
580.0	47.88
581.0	45.01
582.0	42.24
583.0	45.49
584.0	38.81
585.0	38.42
586.0	40.97
587.0	34.22
588.0	36.50
589.0	33.79
590.0	30.29
591.0	38.53
592.0	34.61
593.0	32.32
594.0	32.12
595.0	30.70
596.0	27.61
597.0	28.99
598.0	24.71
599.0	26.56
600.0	21.39
601.0	29.92
602.0	24.78
603.0	24.31
604.0	21.93
605.0	21.71
606.0	25.96
607.0	21.40
608.0	19.35
609.0	19.70
610.0	24.68
611.0	19.77
612.0	17.74
613.0	17.05
614.0	16.19
615.0	22.19
616.0	23.04
617.0	21.71
618.0	25.75
619.0	20.70
620.0	21.33
621.0	18.43
622.0	12.90
623.0	17.32
624.0	14.03
625.0	12.96
626.0	12.45
627.0	12.82
628.0	12.78
629.0	18.54
630.0	16.21
631.0	17.18
632.0	16.03
633.0	16.27
634.0	13.99
635.0	16.34
636.0	11.17
637.0	10.29
638.0	9.626
639.0	12.15
640.0	8.155
641.0	12.45
642.0	13.37
643.0	11.17
644.0	11.02
645.0	12.55
646.0	14.09
647.0	13.50
648.0	13.41
649.0	12.44
650.0	12.26
651.0	10.88
652.0	10.52
653.0	7.485
654.0	11.83
655.0	9.904
656.0	10.30
657.0	11.73
658.0	10.39
659.0	10.67
660.0	9.858
661.0	10.27
662.0	8.775
663.0	10.14
664.0	7.763
665.0	10.62
666.0	11.43
667.0	7.399
668.0	12.93
669.0	9.928
670.0	9.236
671.0	12.00
672.0	11.99
673.0	8.705
674.0	7.086
675.0	5.803
676.0	11.15
677.0	11.54
678.0	9.268
679.0	9.657
680.0	12.15
681.0	7.226
682.0	11.02
683.0	8.659
684.0	12.30
685.0	13.83
686.0	9.052
687.0	9.891
688.0	6.575
689.0	9.161
690.0	6.733
691.0	5.874
692.0	13.24
693.0	6.805
694.0	4.945
695.0	6.844
696.0	6.998
697.0	5.754
698.0	6.234
699.0	7.592
700.0	11.79
701.0	8.204
702.0	9.616
703.0	9.813
704.0	7.712
705.0	6.394
706.0	7.066
707.0	9.688
708.0	7.029
709.0	8.293
710.0	9.473
711.0	8.886
712.0	8.879
713.0	12.83
714.0	13.46
715.0	11.92
716.0	8.593
717.0	11.04
718.0	9.317
719.0	7.342
720.0	10.80
721.0	8.724
722.0	6.383
723.0	14.18
724.0	9.412
725.0	10.53
726.0	6.528
727.0	4.451
728.0	5.510
729.0	8.241
730.0	11.34
731.0	7.333
732.0	8.720
733.0	10.03
734.0	8.097
735.0	9.637
736.0	12.27
737.0	11.73
738.0	9.230
739.0	9.761
740.0	11.14
741.0	9.626
742.0	8.989
743.0	10.00
744.0	8.159
745.0	5.532
746.0	9.621
747.0	9.916
748.0	9.525
749.0	6.489
750.0	6.158
751.0	8.305
752.0	7.687
753.0	7.763
754.0	9.398
755.0	7.718
756.0	4.622
757.0	10.49
758.0	10.81
759.0	10.36
760.0	9.111
761.0	6.752
762.0	9.732
763.0	8.465
764.0	11.89
765.0	11.73
766.0	10.61
767.0	8.691
768.0	8.072
769.0	8.882
770.0	8.304
771.0	5.149
772.0	10.60
773.0	6.897
774.0	9.048
775.0	9.630
776.0	7.378
777.0	10.18
778.0	8.456
779.0	10.08
780.0	10.68

Sample:	'wa-20(EM)
File name:	100.FDS
Run Date:	'17:35:20, 07/11/2024
Operator:	WXH
Comment:	'

Instrument
Model:	F-4600 FL Spectrophotometer
Serial Number:	3080-002
ROM Version:	5J24000 02

Instrument Parameters
Measurement type:	Wavelength scan
Scan mode:	Emission
Data mode:	Fluorescence
EX WL:	460.0 nm
EM  Start WL:	480.0 nm
EM  End WL:	780.0 nm
Scan speed:	1200 nm/min
Delay:	0.0 s
EX Slit:	2.5 nm
EM Slit:	2.5 nm
PMT Voltage:	600 V
Response:	Auto 
Corrected spectra:	Off
Shutter control:	On

Peak integration
Integration method:	Rectangular
Sensitivity:	1
Threshold:	1.000

Peaks
No.	Valley(nm)	Valley(Data)
1	485.2	18.63
2	509.6	258.8
3	512.0	276.6
4	518.8	265.4
5	523.6	245.9
6	526.8	244.0
7	531.4	214.6
8	535.4	190.1
9	539.2	177.5
10	540.4	177.3
11	547.2	138.0
12	548.8	126.8
13	551.6	112.3
14	556.8	92.49
15	562.6	75.08
16	567.8	62.09
17	572.0	60.96
18	576.0	49.44
19	581.6	44.78
20	583.8	42.10
21	586.2	38.96
22	588.8	37.65
23	591.2	26.07
24	594.2	24.89
25	597.2	28.35
26	598.6	23.80
27	604.2	21.25
28	608.2	12.28
29	610.2	19.04
30	613.0	19.08
31	617.4	15.72
32	622.0	13.41
33	623.4	12.98
34	626.2	11.70
35	633.6	11.77
36	637.2	10.21
37	640.6	12.44
38	642.2	10.36
39	645.8	8.226
40	649.4	9.126
41	651.8	7.085
42	653.6	8.124
43	658.2	6.778
44	660.6	8.831
45	665.0	4.445
46	668.0	7.013
47	676.2	4.413
48	678.6	4.410
49	684.8	4.962
50	692.0	6.864
51	694.0	5.881
52	696.8	5.742
53	700.0	5.191
54	703.4	6.159
55	706.4	5.074
56	709.0	6.938
57	711.4	4.653
58	713.6	6.896
59	718.6	4.331
60	722.0	5.379
61	725.2	4.236
62	729.0	5.961
63	732.0	6.090
64	733.6	4.195
65	740.2	5.806
66	743.4	7.010
67	746.2	5.940
68	749.8	5.804
69	752.6	4.499
70	756.4	4.383
71	759.8	6.398
72	761.4	6.932
73	765.0	5.991
74	767.2	5.790
75	771.2	5.045
76	778.2	4.747

Data Points
nm	Data
480.0	9.525
481.0	17.86
482.0	18.24
483.0	19.05
484.0	19.64
485.0	23.82
486.0	26.76
487.0	28.50
488.0	31.16
489.0	40.57
490.0	38.30
491.0	45.23
492.0	45.45
493.0	52.91
494.0	75.07
495.0	80.19
496.0	82.72
497.0	92.76
498.0	113.4
499.0	132.1
500.0	145.9
501.0	163.1
502.0	190.0
503.0	209.0
504.0	214.0
505.0	241.5
506.0	241.5
507.0	262.3
508.0	291.2
509.0	282.8
510.0	265.7
511.0	284.9
512.0	276.6
513.0	303.6
514.0	303.9
515.0	282.8
516.0	284.6
517.0	293.7
518.0	270.2
519.0	283.6
520.0	266.0
521.0	271.5
522.0	274.5
523.0	246.9
524.0	259.2
525.0	258.2
526.0	262.5
527.0	247.6
528.0	252.5
529.0	254.3
530.0	226.0
531.0	208.7
532.0	218.6
533.0	219.6
534.0	211.6
535.0	201.9
536.0	205.2
537.0	202.6
538.0	184.9
539.0	182.2
540.0	185.3
541.0	183.8
542.0	169.3
543.0	175.6
544.0	163.5
545.0	151.9
546.0	148.0
547.0	140.7
548.0	153.4
549.0	132.2
550.0	138.7
551.0	117.3
552.0	120.4
553.0	117.5
554.0	119.9
555.0	108.4
556.0	97.53
557.0	100.8
558.0	96.00
559.0	101.5
560.0	89.40
561.0	92.29
562.0	86.46
563.0	84.52
564.0	80.39
565.0	73.64
566.0	72.02
567.0	73.53
568.0	66.64
569.0	69.72
570.0	61.71
571.0	66.81
572.0	60.96
573.0	62.23
574.0	58.60
575.0	53.46
576.0	49.44
577.0	59.17
578.0	55.95
579.0	51.11
580.0	48.69
581.0	45.41
582.0	45.05
583.0	51.22
584.0	42.14
585.0	48.33
586.0	39.40
587.0	50.33
588.0	42.24
589.0	39.90
590.0	37.83
591.0	28.25
592.0	32.83
593.0	29.82
594.0	29.37
595.0	35.04
596.0	32.93
597.0	29.45
598.0	33.39
599.0	26.62
600.0	26.68
601.0	25.84
602.0	24.56
603.0	22.68
604.0	22.66
605.0	23.06
606.0	19.85
607.0	20.21
608.0	15.69
609.0	19.32
610.0	22.08
611.0	23.17
612.0	20.84
613.0	19.08
614.0	22.45
615.0	23.02
616.0	20.63
617.0	19.06
618.0	18.03
619.0	21.78
620.0	17.14
621.0	16.35
622.0	13.41
623.0	15.45
624.0	14.71
625.0	15.42
626.0	13.03
627.0	21.28
628.0	18.62
629.0	17.49
630.0	17.81
631.0	14.49
632.0	14.55
633.0	13.66
634.0	17.97
635.0	17.67
636.0	14.52
637.0	12.50
638.0	17.73
639.0	13.95
640.0	15.48
641.0	14.58
642.0	11.26
643.0	12.63
644.0	12.25
645.0	12.49
646.0	10.68
647.0	11.54
648.0	11.10
649.0	10.13
650.0	12.74
651.0	12.86
652.0	8.583
653.0	11.97
654.0	10.67
655.0	11.99
656.0	11.05
657.0	6.809
658.0	7.401
659.0	9.958
660.0	11.81
661.0	9.738
662.0	12.73
663.0	10.55
664.0	7.473
665.0	4.445
666.0	6.614
667.0	9.872
668.0	7.013
669.0	10.78
670.0	8.083
671.0	10.61
672.0	12.29
673.0	9.185
674.0	7.176
675.0	7.011
676.0	4.856
677.0	10.37
678.0	5.885
679.0	10.02
680.0	6.236
681.0	11.18
682.0	10.31
683.0	8.995
684.0	6.892
685.0	8.401
686.0	9.413
687.0	7.849
688.0	8.826
689.0	10.84
690.0	7.719
691.0	7.737
692.0	6.864
693.0	6.484
694.0	5.881
695.0	10.80
696.0	10.40
697.0	6.264
698.0	9.067
699.0	8.346
700.0	5.191
701.0	8.250
702.0	7.053
703.0	6.946
704.0	9.270
705.0	9.374
706.0	7.409
707.0	5.617
708.0	10.23
709.0	6.938
710.0	8.721
711.0	6.642
712.0	8.362
713.0	9.825
714.0	7.638
715.0	13.55
716.0	8.744
717.0	7.912
718.0	5.187
719.0	6.382
720.0	6.818
721.0	6.054
722.0	5.379
723.0	11.82
724.0	7.076
725.0	4.331
726.0	9.079
727.0	6.950
728.0	7.846
729.0	5.961
730.0	7.984
731.0	10.22
732.0	6.090
733.0	7.183
734.0	4.252
735.0	10.08
736.0	9.147
737.0	11.34
738.0	11.49
739.0	7.530
740.0	8.140
741.0	7.961
742.0	9.616
743.0	9.438
744.0	7.737
745.0	9.658
746.0	7.188
747.0	7.494
748.0	9.818
749.0	9.246
750.0	6.230
751.0	7.193
752.0	5.501
753.0	8.208
754.0	11.94
755.0	8.804
756.0	8.338
757.0	5.440
758.0	7.349
759.0	8.609
760.0	9.379
761.0	7.051
762.0	11.88
763.0	8.678
764.0	8.213
765.0	5.991
766.0	10.53
767.0	6.840
768.0	7.570
769.0	8.626
770.0	7.831
771.0	6.459
772.0	5.016
773.0	8.119
774.0	9.109
775.0	8.212
776.0	10.17
777.0	8.067
778.0	5.972
779.0	8.420
780.0	9.871

