Sample:	'wa-1(EM)
File name:	20.FDS
Run Date:	'18:52:40, 07/11/2024
Operator:	WXH
Comment:	'

Instrument
Model:	F-4600 FL Spectrophotometer
Serial Number:	3080-002
ROM Version:	5J24000 02

Instrument Parameters
Measurement type:	Wavelength scan
Scan mode:	Emission
Data mode:	Fluorescence
EX WL:	460.0 nm
EM  Start WL:	480.0 nm
EM  End WL:	780.0 nm
Scan speed:	1200 nm/min
Delay:	0.0 s
EX Slit:	2.5 nm
EM Slit:	2.5 nm
PMT Voltage:	600 V
Response:	Auto 
Corrected spectra:	Off
Shutter control:	On

Peak integration
Integration method:	Rectangular
Sensitivity:	1
Threshold:	1.000

Peaks
No.	Valley(nm)	Valley(Data)
1	507.4	 1106
2	512.0	 1085
3	519.4	919.2
4	526.8	793.8
5	530.6	741.4
6	538.2	623.1
7	546.6	481.0
8	549.4	437.6
9	570.2	211.4
10	572.6	186.5
11	575.6	160.9
12	585.0	118.0
13	589.2	99.76
14	591.2	88.31
15	594.6	82.95
16	596.2	88.07
17	600.2	66.27
18	606.2	57.27
19	609.6	53.62
20	611.6	47.79
21	617.0	36.61
22	620.8	32.91
23	625.2	28.60
24	626.8	32.72
25	630.0	25.84
26	635.0	20.35
27	638.0	21.00
28	640.8	18.69
29	642.6	19.66
30	645.6	15.41
31	648.6	16.25
32	652.6	16.84
33	657.8	12.80
34	662.6	11.01
35	664.2	14.88
36	666.6	13.99
37	669.4	13.88
38	670.6	11.90
39	672.6	10.14
40	676.4	9.282
41	679.4	10.66
42	685.4	7.771
43	688.2	9.916
44	693.6	10.51
45	695.6	9.017
46	700.4	7.397
47	703.6	8.590
48	708.0	10.20
49	713.0	10.24
50	714.6	9.522
51	716.2	9.307
52	718.4	12.39
53	719.8	9.345
54	722.2	9.170
55	724.2	9.179
56	727.4	8.344
57	730.2	10.17
58	733.6	9.367
59	736.4	8.877
60	741.0	7.156
61	745.0	8.935
62	750.2	9.401
63	754.6	9.170
64	756.6	9.192
65	758.4	7.804
66	760.8	7.094
67	762.4	7.818
68	765.8	8.163
69	767.8	8.771
70	771.6	7.693
71	776.0	8.356
72	780.0	10.52

Data Points
nm	Data
480.0	48.24
481.0	60.73
482.0	73.29
483.0	89.40
484.0	102.4
485.0	128.6
486.0	161.3
487.0	190.1
488.0	222.1
489.0	275.8
490.0	304.1
491.0	356.1
492.0	416.7
493.0	467.5
494.0	522.6
495.0	613.2
496.0	692.7
497.0	749.7
498.0	793.4
499.0	864.7
500.0	897.9
501.0	985.5
502.0	 1002
503.0	 1015
504.0	 1031
505.0	 1092
506.0	 1118
507.0	 1116
508.0	 1144
509.0	 1134
510.0	 1131
511.0	 1136
512.0	 1085
513.0	 1110
514.0	 1077
515.0	 1089
516.0	 1028
517.0	978.7
518.0	999.9
519.0	967.8
520.0	938.9
521.0	960.3
522.0	914.1
523.0	906.9
524.0	860.5
525.0	833.1
526.0	831.3
527.0	807.3
528.0	818.3
529.0	769.5
530.0	767.5
531.0	773.0
532.0	758.3
533.0	707.3
534.0	706.2
535.0	688.1
536.0	665.5
537.0	658.1
538.0	636.2
539.0	610.6
540.0	607.9
541.0	572.7
542.0	563.1
543.0	559.9
544.0	536.5
545.0	526.4
546.0	483.5
547.0	502.4
548.0	493.8
549.0	457.4
550.0	451.1
551.0	440.1
552.0	415.8
553.0	398.0
554.0	382.9
555.0	365.9
556.0	353.2
557.0	345.7
558.0	307.3
559.0	304.2
560.0	303.2
561.0	308.3
562.0	283.3
563.0	277.7
564.0	272.8
565.0	256.9
566.0	243.4
567.0	243.1
568.0	232.2
569.0	221.3
570.0	216.1
571.0	213.3
572.0	214.5
573.0	186.8
574.0	199.0
575.0	172.0
576.0	167.8
577.0	175.4
578.0	161.3
579.0	153.2
580.0	150.9
581.0	146.8
582.0	152.1
583.0	132.0
584.0	127.9
585.0	118.0
586.0	130.3
587.0	118.4
588.0	123.1
589.0	101.9
590.0	119.9
591.0	93.24
592.0	98.98
593.0	98.51
594.0	91.70
595.0	84.72
596.0	93.92
597.0	93.37
598.0	84.53
599.0	86.72
600.0	75.93
601.0	70.93
602.0	81.94
603.0	77.39
604.0	71.96
605.0	69.25
606.0	57.53
607.0	58.06
608.0	55.82
609.0	58.86
610.0	56.32
611.0	55.91
612.0	50.97
613.0	55.48
614.0	47.72
615.0	45.20
616.0	40.83
617.0	36.61
618.0	47.76
619.0	48.72
620.0	44.15
621.0	34.54
622.0	40.84
623.0	35.43
624.0	36.92
625.0	30.59
626.0	39.42
627.0	33.15
628.0	40.16
629.0	34.19
630.0	25.84
631.0	32.10
632.0	24.68
633.0	28.34
634.0	20.22
635.0	20.35
636.0	21.47
637.0	19.29
638.0	21.00
639.0	21.87
640.0	29.76
641.0	19.18
642.0	24.56
643.0	21.08
644.0	22.71
645.0	19.52
646.0	23.00
647.0	19.58
648.0	20.81
649.0	18.08
650.0	18.34
651.0	19.61
652.0	18.80
653.0	18.93
654.0	18.14
655.0	19.77
656.0	18.88
657.0	15.34
658.0	14.39
659.0	20.14
660.0	15.34
661.0	16.39
662.0	14.31
663.0	20.18
664.0	16.04
665.0	18.22
666.0	15.76
667.0	16.20
668.0	17.20
669.0	14.75
670.0	19.58
671.0	13.94
672.0	18.22
673.0	14.44
674.0	14.23
675.0	14.13
676.0	12.84
677.0	14.19
678.0	15.69
679.0	14.91
680.0	13.59
681.0	14.64
682.0	15.04
683.0	13.66
684.0	10.58
685.0	12.24
686.0	13.41
687.0	12.97
688.0	10.57
689.0	12.27
690.0	13.69
691.0	18.66
692.0	13.20
693.0	11.56
694.0	11.73
695.0	10.15
696.0	9.331
697.0	12.71
698.0	13.02
699.0	10.45
700.0	8.981
701.0	12.29
702.0	11.32
703.0	11.52
704.0	11.08
705.0	10.82
706.0	14.37
707.0	13.73
708.0	10.20
709.0	14.57
710.0	14.14
711.0	11.31
712.0	11.85
713.0	10.24
714.0	15.16
715.0	13.52
716.0	9.458
717.0	14.18
718.0	12.47
719.0	15.37
720.0	12.27
721.0	18.55
722.0	11.32
723.0	12.80
724.0	10.62
725.0	13.18
726.0	15.59
727.0	12.80
728.0	13.35
729.0	15.42
730.0	11.18
731.0	10.86
732.0	14.13
733.0	12.07
734.0	9.706
735.0	13.24
736.0	9.370
737.0	9.865
738.0	12.93
739.0	11.69
740.0	13.13
741.0	7.156
742.0	9.074
743.0	10.29
744.0	11.07
745.0	8.935
746.0	10.61
747.0	12.70
748.0	12.37
749.0	9.445
750.0	12.71
751.0	11.61
752.0	11.58
753.0	9.770
754.0	10.47
755.0	13.16
756.0	12.44
757.0	13.92
758.0	11.28
759.0	8.510
760.0	10.02
761.0	10.54
762.0	10.12
763.0	7.830
764.0	12.01
765.0	13.04
766.0	10.10
767.0	12.31
768.0	10.81
769.0	10.06
770.0	14.47
771.0	12.02
772.0	8.179
773.0	10.89
774.0	15.41
775.0	10.36
776.0	8.356
777.0	11.79
778.0	11.68
779.0	8.092
780.0	10.52

Sample:	'wa-2(EM)
File name:	20.FDS
Run Date:	'18:53:10, 07/11/2024
Operator:	WXH
Comment:	'

Instrument
Model:	F-4600 FL Spectrophotometer
Serial Number:	3080-002
ROM Version:	5J24000 02

Instrument Parameters
Measurement type:	Wavelength scan
Scan mode:	Emission
Data mode:	Fluorescence
EX WL:	460.0 nm
EM  Start WL:	480.0 nm
EM  End WL:	780.0 nm
Scan speed:	1200 nm/min
Delay:	0.0 s
EX Slit:	2.5 nm
EM Slit:	2.5 nm
PMT Voltage:	600 V
Response:	Auto 
Corrected spectra:	Off
Shutter control:	On

Peak integration
Integration method:	Rectangular
Sensitivity:	1
Threshold:	1.000

Peaks
No.	Valley(nm)	Valley(Data)
1	507.4	 1123
2	509.6	 1122
3	527.8	778.3
4	534.4	659.0
5	536.4	645.3
6	559.4	301.0
7	564.2	243.2
8	569.6	209.3
9	573.2	180.5
10	578.6	152.0
11	584.4	121.9
12	588.6	98.26
13	592.6	91.93
14	598.0	71.15
15	600.8	68.63
16	606.4	55.11
17	609.0	54.08
18	612.2	42.51
19	618.0	28.90
20	621.0	35.40
21	627.2	25.93
22	630.0	24.00
23	632.2	25.13
24	635.4	21.05
25	639.0	20.57
26	642.0	19.04
27	645.0	16.82
28	651.0	17.59
29	652.2	16.60
30	655.8	13.70
31	658.2	14.53
32	664.2	12.43
33	665.8	12.94
34	667.8	12.54
35	671.0	9.560
36	675.2	12.08
37	677.6	11.80
38	680.0	13.36
39	682.0	13.24
40	687.0	9.640
41	691.4	10.16
42	696.0	9.232
43	700.8	7.816
44	704.2	8.071
45	708.2	5.786
46	713.2	7.717
47	719.0	7.346
48	720.8	9.655
49	723.6	8.801
50	728.4	7.934
51	733.0	9.892
52	736.2	8.093
53	740.6	8.499
54	744.8	8.348
55	750.4	9.108
56	755.2	7.583
57	758.8	7.719
58	763.8	7.869
59	765.2	7.521
60	768.0	9.736
61	770.6	8.287
62	773.4	7.488
63	775.4	6.682
64	777.4	9.852

Data Points
nm	Data
480.0	61.52
481.0	61.84
482.0	66.59
483.0	90.37
484.0	108.9
485.0	125.4
486.0	156.8
487.0	181.1
488.0	219.9
489.0	269.8
490.0	319.0
491.0	369.9
492.0	422.8
493.0	458.5
494.0	518.8
495.0	616.5
496.0	676.3
497.0	729.0
498.0	791.0
499.0	874.1
500.0	906.4
501.0	962.3
502.0	 1002
503.0	 1066
504.0	 1060
505.0	 1145
506.0	 1142
507.0	 1138
508.0	 1140
509.0	 1146
510.0	 1147
511.0	 1134
512.0	 1140
513.0	 1093
514.0	 1077
515.0	 1058
516.0	 1037
517.0	987.6
518.0	995.9
519.0	965.0
520.0	931.7
521.0	940.4
522.0	938.1
523.0	898.9
524.0	868.1
525.0	854.4
526.0	834.6
527.0	816.9
528.0	804.6
529.0	791.2
530.0	783.3
531.0	769.8
532.0	718.3
533.0	705.4
534.0	676.3
535.0	713.7
536.0	688.6
537.0	655.8
538.0	660.1
539.0	624.3
540.0	594.5
541.0	589.3
542.0	569.6
543.0	552.4
544.0	548.2
545.0	539.6
546.0	526.3
547.0	491.4
548.0	479.4
549.0	440.0
550.0	430.7
551.0	422.9
552.0	405.7
553.0	387.1
554.0	381.7
555.0	364.5
556.0	354.6
557.0	320.4
558.0	326.0
559.0	324.0
560.0	305.6
561.0	308.9
562.0	281.7
563.0	271.0
564.0	248.9
565.0	260.6
566.0	253.1
567.0	227.1
568.0	231.9
569.0	219.9
570.0	213.2
571.0	210.0
572.0	182.4
573.0	193.1
574.0	191.2
575.0	193.6
576.0	175.3
577.0	162.0
578.0	166.3
579.0	156.1
580.0	149.4
581.0	140.6
582.0	139.0
583.0	130.1
584.0	123.8
585.0	138.4
586.0	131.0
587.0	115.9
588.0	107.3
589.0	103.1
590.0	103.8
591.0	97.42
592.0	104.9
593.0	98.46
594.0	99.95
595.0	98.89
596.0	92.67
597.0	72.74
598.0	71.15
599.0	78.24
600.0	78.30
601.0	70.02
602.0	73.14
603.0	73.04
604.0	71.68
605.0	64.03
606.0	59.99
607.0	69.18
608.0	61.58
609.0	54.08
610.0	57.97
611.0	49.49
612.0	42.99
613.0	45.31
614.0	48.11
615.0	49.50
616.0	49.88
617.0	45.00
618.0	28.90
619.0	35.08
620.0	41.48
621.0	35.40
622.0	36.97
623.0	40.45
624.0	37.15
625.0	38.15
626.0	31.44
627.0	32.40
628.0	31.24
629.0	31.16
630.0	24.00
631.0	31.16
632.0	26.67
633.0	28.29
634.0	27.72
635.0	24.57
636.0	26.18
637.0	26.67
638.0	27.72
639.0	20.57
640.0	21.72
641.0	20.88
642.0	19.04
643.0	25.16
644.0	20.32
645.0	16.82
646.0	23.32
647.0	22.63
648.0	23.16
649.0	22.63
650.0	19.94
651.0	17.59
652.0	17.87
653.0	18.99
654.0	21.63
655.0	20.56
656.0	17.06
657.0	20.81
658.0	16.28
659.0	16.81
660.0	15.28
661.0	17.07
662.0	16.57
663.0	15.40
664.0	12.52
665.0	14.44
666.0	12.98
667.0	17.79
668.0	15.55
669.0	20.80
670.0	12.92
671.0	9.560
672.0	13.57
673.0	14.15
674.0	15.82
675.0	13.27
676.0	14.88
677.0	13.26
678.0	12.79
679.0	13.46
680.0	13.36
681.0	16.43
682.0	13.24
683.0	14.42
684.0	11.68
685.0	15.08
686.0	13.02
687.0	9.640
688.0	12.82
689.0	10.36
690.0	12.13
691.0	10.29
692.0	11.71
693.0	9.646
694.0	11.59
695.0	10.52
696.0	9.232
697.0	10.41
698.0	10.45
699.0	12.97
700.0	10.68
701.0	9.945
702.0	12.35
703.0	10.86
704.0	10.57
705.0	10.02
706.0	11.80
707.0	10.74
708.0	8.759
709.0	12.25
710.0	12.61
711.0	10.75
712.0	14.72
713.0	7.722
714.0	11.41
715.0	9.126
716.0	12.09
717.0	9.651
718.0	8.489
719.0	7.346
720.0	11.36
721.0	11.03
722.0	12.39
723.0	10.81
724.0	11.08
725.0	11.83
726.0	12.54
727.0	12.10
728.0	10.04
729.0	8.419
730.0	9.689
731.0	11.16
732.0	12.53
733.0	9.892
734.0	11.78
735.0	13.04
736.0	10.36
737.0	11.71
738.0	9.499
739.0	10.17
740.0	9.056
741.0	12.15
742.0	10.95
743.0	14.19
744.0	13.29
745.0	12.39
746.0	10.52
747.0	12.81
748.0	12.28
749.0	11.04
750.0	11.49
751.0	10.02
752.0	12.15
753.0	12.51
754.0	10.37
755.0	7.994
756.0	9.643
757.0	14.59
758.0	10.26
759.0	8.477
760.0	12.02
761.0	11.64
762.0	11.73
763.0	8.038
764.0	8.815
765.0	8.561
766.0	11.77
767.0	11.81
768.0	9.736
769.0	15.01
770.0	10.57
771.0	9.286
772.0	15.14
773.0	9.311
774.0	11.75
775.0	9.120
776.0	10.20
777.0	11.74
778.0	11.34
779.0	12.44
780.0	14.69

Sample:	'wa-3(EM)
File name:	20.FDS
Run Date:	'18:53:40, 07/11/2024
Operator:	WXH
Comment:	'

Instrument
Model:	F-4600 FL Spectrophotometer
Serial Number:	3080-002
ROM Version:	5J24000 02

Instrument Parameters
Measurement type:	Wavelength scan
Scan mode:	Emission
Data mode:	Fluorescence
EX WL:	460.0 nm
EM  Start WL:	480.0 nm
EM  End WL:	780.0 nm
Scan speed:	1200 nm/min
Delay:	0.0 s
EX Slit:	2.5 nm
EM Slit:	2.5 nm
PMT Voltage:	600 V
Response:	Auto 
Corrected spectra:	Off
Shutter control:	On

Peak integration
Integration method:	Rectangular
Sensitivity:	1
Threshold:	1.000

Peaks
No.	Valley(nm)	Valley(Data)
1	509.0	 1111
2	511.6	 1072
3	518.6	945.6
4	523.6	860.9
5	528.8	781.3
6	533.8	676.8
7	557.2	328.5
8	562.0	273.0
9	563.6	250.2
10	571.0	200.7
11	579.0	139.1
12	585.0	114.6
13	587.2	104.8
14	591.8	97.53
15	599.2	79.19
16	601.6	65.19
17	611.0	43.70
18	613.8	46.56
19	618.6	39.36
20	622.2	32.91
21	624.2	33.02
22	628.0	27.08
23	632.2	24.87
24	634.4	25.54
25	639.4	19.45
26	642.0	18.70
27	644.4	17.37
28	646.4	17.35
29	649.8	15.65
30	655.8	12.96
31	658.4	12.91
32	659.6	13.42
33	661.8	13.41
34	667.6	10.05
35	670.0	12.68
36	672.0	13.25
37	673.4	11.56
38	677.0	11.43
39	680.0	10.76
40	682.8	9.805
41	685.4	10.22
42	688.0	7.505
43	691.0	8.639
44	693.2	8.250
45	695.4	7.970
46	700.2	8.871
47	703.0	8.407
48	705.4	8.243
49	707.0	8.698
50	711.0	9.887
51	713.4	9.113
52	717.8	8.317
53	723.8	9.907
54	727.6	7.524
55	729.0	9.661
56	731.6	8.090
57	734.0	10.05
58	736.6	9.054
59	738.4	10.43
60	743.6	7.635
61	746.6	8.185
62	749.8	9.700
63	755.2	5.819
64	756.4	6.565
65	758.8	5.910
66	762.2	7.840
67	764.0	7.105
68	767.2	10.89
69	770.6	8.202
70	773.4	6.148
71	775.4	6.518
72	778.4	10.21

Data Points
nm	Data
480.0	77.34
481.0	62.25
482.0	70.29
483.0	86.51
484.0	102.7
485.0	133.2
486.0	172.0
487.0	188.9
488.0	200.0
489.0	255.9
490.0	303.0
491.0	358.6
492.0	404.7
493.0	497.1
494.0	544.5
495.0	602.9
496.0	668.1
497.0	752.5
498.0	794.1
499.0	850.5
500.0	918.9
501.0	970.7
502.0	 1037
503.0	 1082
504.0	 1104
505.0	 1082
506.0	 1133
507.0	 1154
508.0	 1172
509.0	 1111
510.0	 1124
511.0	 1114
512.0	 1093
513.0	 1131
514.0	 1094
515.0	 1061
516.0	 1040
517.0	 1023
518.0	986.2
519.0	980.2
520.0	956.3
521.0	956.1
522.0	885.2
523.0	895.9
524.0	861.3
525.0	873.2
526.0	822.5
527.0	825.8
528.0	801.2
529.0	807.4
530.0	769.2
531.0	761.1
532.0	732.3
533.0	752.1
534.0	686.4
535.0	705.9
536.0	662.6
537.0	650.3
538.0	617.7
539.0	626.7
540.0	616.9
541.0	605.2
542.0	566.0
543.0	566.3
544.0	540.0
545.0	526.4
546.0	515.0
547.0	482.6
548.0	497.6
549.0	467.4
550.0	443.2
551.0	444.6
552.0	406.4
553.0	387.0
554.0	381.4
555.0	361.2
556.0	350.6
557.0	338.0
558.0	349.3
559.0	322.3
560.0	315.3
561.0	275.7
562.0	273.0
563.0	281.5
564.0	258.1
565.0	262.6
566.0	262.0
567.0	228.1
568.0	227.2
569.0	219.1
570.0	216.9
571.0	200.7
572.0	214.7
573.0	186.5
574.0	183.0
575.0	192.1
576.0	173.9
577.0	167.7
578.0	154.7
579.0	139.1
580.0	149.0
581.0	152.0
582.0	147.1
583.0	137.4
584.0	131.6
585.0	114.6
586.0	135.6
587.0	104.9
588.0	115.6
589.0	112.3
590.0	100.6
591.0	98.53
592.0	101.8
593.0	111.5
594.0	88.78
595.0	94.97
596.0	94.25
597.0	85.41
598.0	86.07
599.0	87.90
600.0	90.79
601.0	76.90
602.0	72.03
603.0	66.76
604.0	68.27
605.0	69.27
606.0	64.79
607.0	57.35
608.0	54.03
609.0	56.57
610.0	52.77
611.0	43.70
612.0	52.31
613.0	49.08
614.0	51.90
615.0	48.85
616.0	46.88
617.0	46.92
618.0	47.25
619.0	44.52
620.0	45.88
621.0	39.18
622.0	33.87
623.0	33.58
624.0	33.98
625.0	36.21
626.0	27.38
627.0	30.24
628.0	27.08
629.0	32.03
630.0	32.99
631.0	28.84
632.0	26.86
633.0	30.48
634.0	30.35
635.0	29.61
636.0	27.53
637.0	25.88
638.0	23.46
639.0	22.52
640.0	22.58
641.0	22.50
642.0	18.70
643.0	22.98
644.0	19.02
645.0	19.89
646.0	19.75
647.0	22.84
648.0	16.44
649.0	18.76
650.0	16.00
651.0	16.00
652.0	22.09
653.0	17.36
654.0	16.11
655.0	12.70
656.0	13.03
657.0	18.62
658.0	16.12
659.0	17.89
660.0	14.75
661.0	17.94
662.0	15.72
663.0	17.18
664.0	19.76
665.0	17.27
666.0	14.23
667.0	11.24
668.0	17.77
669.0	14.16
670.0	12.68
671.0	14.95
672.0	13.25
673.0	14.72
674.0	12.42
675.0	17.24
676.0	15.00
677.0	11.43
678.0	13.88
679.0	10.73
680.0	10.76
681.0	15.18
682.0	10.59
683.0	12.85
684.0	14.17
685.0	12.70
686.0	12.87
687.0	13.30
688.0	7.505
689.0	12.08
690.0	10.12
691.0	8.639
692.0	13.79
693.0	10.36
694.0	11.24
695.0	10.55
696.0	9.525
697.0	9.798
698.0	15.72
699.0	11.00
700.0	9.631
701.0	13.15
702.0	14.30
703.0	8.407
704.0	12.73
705.0	9.937
706.0	9.203
707.0	8.698
708.0	11.07
709.0	9.685
710.0	11.59
711.0	9.887
712.0	12.86
713.0	11.36
714.0	12.30
715.0	9.908
716.0	9.790
717.0	9.032
718.0	9.462
719.0	14.56
720.0	20.69
721.0	13.71
722.0	13.60
723.0	11.92
724.0	11.73
725.0	16.34
726.0	13.14
727.0	11.31
728.0	9.381
729.0	9.661
730.0	10.75
731.0	13.00
732.0	10.85
733.0	12.41
734.0	10.05
735.0	12.80
736.0	11.24
737.0	10.92
738.0	14.24
739.0	13.27
740.0	15.42
741.0	9.871
742.0	11.05
743.0	9.378
744.0	8.554
745.0	10.83
746.0	11.40
747.0	10.17
748.0	12.23
749.0	11.74
750.0	10.01
751.0	11.17
752.0	13.86
753.0	10.49
754.0	10.63
755.0	6.747
756.0	7.275
757.0	7.357
758.0	11.69
759.0	6.067
760.0	8.944
761.0	14.10
762.0	8.240
763.0	10.75
764.0	7.105
765.0	10.89
766.0	11.96
767.0	13.03
768.0	11.57
769.0	14.09
770.0	9.279
771.0	9.339
772.0	9.481
773.0	9.528
774.0	13.41
775.0	8.282
776.0	9.459
777.0	13.20
778.0	10.51
779.0	12.72
780.0	12.16

Sample:	'wa-4(EM)
File name:	20.FDS
Run Date:	'18:54:11, 07/11/2024
Operator:	WXH
Comment:	'

Instrument
Model:	F-4600 FL Spectrophotometer
Serial Number:	3080-002
ROM Version:	5J24000 02

Instrument Parameters
Measurement type:	Wavelength scan
Scan mode:	Emission
Data mode:	Fluorescence
EX WL:	460.0 nm
EM  Start WL:	480.0 nm
EM  End WL:	780.0 nm
Scan speed:	1200 nm/min
Delay:	0.0 s
EX Slit:	2.5 nm
EM Slit:	2.5 nm
PMT Voltage:	600 V
Response:	Auto 
Corrected spectra:	Off
Shutter control:	On

Peak integration
Integration method:	Rectangular
Sensitivity:	1
Threshold:	1.000

Peaks
No.	Valley(nm)	Valley(Data)
1	506.8	 1105
2	509.2	 1135
3	514.2	 1036
4	528.0	771.9
5	532.8	682.8
6	535.2	693.3
7	544.6	503.9
8	557.6	329.4
9	566.8	222.8
10	576.0	165.8
11	582.4	126.3
12	586.8	107.3
13	592.4	89.85
14	596.8	78.87
15	603.8	57.01
16	609.0	50.93
17	611.4	46.23
18	613.6	38.99
19	617.8	39.16
20	620.2	34.70
21	623.0	35.48
22	626.6	27.27
23	630.8	27.64
24	635.4	22.02
25	638.6	17.83
26	641.0	20.62
27	648.4	14.74
28	652.2	13.65
29	656.2	10.62
30	658.0	12.74
31	660.8	13.35
32	664.6	12.23
33	667.2	13.54
34	669.4	8.855
35	675.0	11.39
36	677.0	11.08
37	678.6	10.69
38	682.4	12.85
39	685.2	9.734
40	688.0	9.140
41	691.0	8.932
42	694.2	7.804
43	699.2	10.26
44	701.2	10.80
45	706.8	8.475
46	709.0	7.373
47	713.8	8.833
48	715.2	9.971
49	720.2	8.500
50	721.8	9.463
51	724.6	7.621
52	728.8	8.024
53	732.0	10.66
54	736.8	8.243
55	740.6	7.291
56	742.8	8.313
57	745.0	10.55
58	746.6	10.43
59	749.0	8.397
60	750.8	7.202
61	753.0	7.991
62	755.6	7.746
63	759.0	8.830
64	762.4	8.432
65	764.8	8.355
66	768.4	7.905
67	771.2	7.469
68	775.6	8.955
69	777.8	6.015

Data Points
nm	Data
480.0	46.29
481.0	57.23
482.0	79.26
483.0	83.26
484.0	104.6
485.0	118.4
486.0	150.1
487.0	180.1
488.0	206.9
489.0	250.0
490.0	304.7
491.0	350.8
492.0	424.1
493.0	473.0
494.0	524.7
495.0	604.5
496.0	674.3
497.0	724.1
498.0	831.0
499.0	865.5
500.0	950.4
501.0	977.3
502.0	 1000
503.0	 1062
504.0	 1094
505.0	 1123
506.0	 1135
507.0	 1127
508.0	 1164
509.0	 1143
510.0	 1166
511.0	 1145
512.0	 1133
513.0	 1107
514.0	 1045
515.0	 1077
516.0	 1077
517.0	 1022
518.0	979.3
519.0	975.5
520.0	943.2
521.0	902.0
522.0	911.1
523.0	891.2
524.0	896.5
525.0	855.1
526.0	867.0
527.0	836.1
528.0	771.9
529.0	812.7
530.0	773.5
531.0	759.5
532.0	731.8
533.0	697.2
534.0	718.0
535.0	706.2
536.0	714.8
537.0	669.3
538.0	633.6
539.0	629.8
540.0	620.9
541.0	617.0
542.0	579.2
543.0	555.6
544.0	543.1
545.0	515.2
546.0	510.4
547.0	495.6
548.0	455.3
549.0	464.3
550.0	424.9
551.0	422.1
552.0	393.1
553.0	386.2
554.0	380.3
555.0	354.2
556.0	364.6
557.0	350.9
558.0	352.4
559.0	357.4
560.0	325.5
561.0	293.9
562.0	279.1
563.0	267.7
564.0	257.2
565.0	249.6
566.0	248.2
567.0	236.8
568.0	228.8
569.0	222.8
570.0	211.8
571.0	206.7
572.0	201.5
573.0	203.3
574.0	176.8
575.0	175.0
576.0	165.8
577.0	173.6
578.0	168.2
579.0	155.5
580.0	160.1
581.0	142.8
582.0	138.4
583.0	134.7
584.0	129.9
585.0	129.4
586.0	118.9
587.0	110.7
588.0	120.0
589.0	119.8
590.0	106.3
591.0	101.7
592.0	96.66
593.0	100.3
594.0	99.45
595.0	103.6
596.0	83.06
597.0	82.58
598.0	88.78
599.0	92.56
600.0	80.32
601.0	83.89
602.0	70.29
603.0	65.67
604.0	57.13
605.0	64.85
606.0	71.45
607.0	59.23
608.0	57.04
609.0	50.93
610.0	52.69
611.0	52.55
612.0	59.38
613.0	47.17
614.0	40.54
615.0	41.29
616.0	49.21
617.0	46.47
618.0	40.61
619.0	39.90
620.0	37.42
621.0	41.64
622.0	44.53
623.0	35.48
624.0	35.51
625.0	37.08
626.0	34.18
627.0	34.66
628.0	34.11
629.0	36.58
630.0	36.99
631.0	30.38
632.0	32.16
633.0	30.47
634.0	25.61
635.0	22.86
636.0	21.72
637.0	28.27
638.0	18.74
639.0	18.04
640.0	23.90
641.0	20.62
642.0	23.48
643.0	26.01
644.0	21.34
645.0	22.25
646.0	17.57
647.0	18.79
648.0	17.01
649.0	16.16
650.0	15.11
651.0	15.16
652.0	13.65
653.0	17.67
654.0	14.43
655.0	14.40
656.0	11.36
657.0	18.69
658.0	12.74
659.0	15.95
660.0	17.70
661.0	15.04
662.0	18.46
663.0	16.64
664.0	16.54
665.0	12.87
666.0	17.27
667.0	13.73
668.0	15.97
669.0	10.10
670.0	11.01
671.0	13.98
672.0	12.95
673.0	8.862
674.0	12.03
675.0	11.39
676.0	13.29
677.0	11.08
678.0	13.48
679.0	11.96
680.0	13.84
681.0	16.63
682.0	14.08
683.0	16.01
684.0	13.48
685.0	9.829
686.0	12.94
687.0	16.14
688.0	9.140
689.0	13.18
690.0	12.36
691.0	8.932
692.0	15.63
693.0	11.98
694.0	8.948
695.0	10.21
696.0	14.79
697.0	12.25
698.0	11.35
699.0	11.27
700.0	11.65
701.0	13.99
702.0	11.61
703.0	14.23
704.0	10.37
705.0	17.44
706.0	13.06
707.0	10.62
708.0	14.13
709.0	7.373
710.0	11.56
711.0	10.79
712.0	11.32
713.0	11.11
714.0	9.509
715.0	11.17
716.0	11.26
717.0	12.25
718.0	14.80
719.0	16.42
720.0	9.646
721.0	13.48
722.0	11.81
723.0	11.67
724.0	9.100
725.0	13.32
726.0	11.03
727.0	12.29
728.0	12.50
729.0	8.262
730.0	10.76
731.0	13.60
732.0	10.66
733.0	14.15
734.0	13.93
735.0	10.22
736.0	10.29
737.0	8.815
738.0	12.33
739.0	11.35
740.0	10.51
741.0	10.37
742.0	15.89
743.0	10.10
744.0	12.69
745.0	10.55
746.0	12.15
747.0	11.77
748.0	9.795
749.0	8.397
750.0	11.67
751.0	7.204
752.0	10.18
753.0	7.991
754.0	12.04
755.0	10.68
756.0	9.808
757.0	8.271
758.0	10.71
759.0	8.830
760.0	15.08
761.0	14.34
762.0	10.58
763.0	12.56
764.0	12.97
765.0	8.856
766.0	9.813
767.0	13.30
768.0	13.29
769.0	11.10
770.0	11.17
771.0	8.909
772.0	10.47
773.0	11.84
774.0	11.70
775.0	9.993
776.0	11.78
777.0	9.069
778.0	7.255
779.0	11.90
780.0	11.66

Sample:	'wa-5(EM)
File name:	20.FDS
Run Date:	'18:54:41, 07/11/2024
Operator:	WXH
Comment:	'

Instrument
Model:	F-4600 FL Spectrophotometer
Serial Number:	3080-002
ROM Version:	5J24000 02

Instrument Parameters
Measurement type:	Wavelength scan
Scan mode:	Emission
Data mode:	Fluorescence
EX WL:	460.0 nm
EM  Start WL:	480.0 nm
EM  End WL:	780.0 nm
Scan speed:	1200 nm/min
Delay:	0.0 s
EX Slit:	2.5 nm
EM Slit:	2.5 nm
PMT Voltage:	600 V
Response:	Auto 
Corrected spectra:	Off
Shutter control:	On

Peak integration
Integration method:	Rectangular
Sensitivity:	1
Threshold:	1.000

Peaks
No.	Valley(nm)	Valley(Data)
1	506.4	 1106
2	508.6	 1105
3	516.0	 1012
4	518.8	950.9
5	535.2	648.5
6	540.8	560.3
7	544.6	513.0
8	564.0	247.2
9	570.8	193.8
10	586.4	115.0
11	592.8	89.24
12	596.0	83.49
13	600.2	67.81
14	604.4	57.21
15	609.8	50.38
16	613.8	39.17
17	615.6	39.38
18	618.8	39.43
19	627.0	29.24
20	632.8	22.20
21	637.2	22.68
22	644.6	16.29
23	646.4	16.71
24	649.2	16.19
25	654.2	15.07
26	655.4	17.44
27	658.2	11.48
28	661.6	11.96
29	666.0	15.62
30	668.2	11.74
31	670.2	13.40
32	672.6	11.25
33	677.2	10.43
34	680.2	11.64
35	686.2	10.77
36	691.2	10.91
37	693.6	8.912
38	697.2	7.982
39	702.6	10.85
40	705.8	12.04
41	708.8	12.76
42	711.8	11.64
43	715.2	7.634
44	718.2	10.33
45	721.2	9.091
46	725.0	7.318
47	729.4	8.153
48	732.2	8.446
49	736.8	6.608
50	740.8	10.54
51	743.4	9.023
52	747.2	9.214
53	748.8	8.860
54	752.6	9.858
55	757.2	8.300
56	762.8	8.161
57	767.8	12.20
58	771.2	10.25
59	773.4	8.108
60	777.0	6.997

Data Points
nm	Data
480.0	65.18
481.0	59.20
482.0	73.04
483.0	82.58
484.0	102.5
485.0	122.0
486.0	154.3
487.0	184.8
488.0	229.0
489.0	251.6
490.0	321.7
491.0	350.0
492.0	415.2
493.0	474.6
494.0	546.3
495.0	615.9
496.0	676.7
497.0	750.2
498.0	824.0
499.0	864.0
500.0	922.7
501.0	983.2
502.0	 1032
503.0	 1079
504.0	 1093
505.0	 1166
506.0	 1120
507.0	 1138
508.0	 1138
509.0	 1147
510.0	 1148
511.0	 1144
512.0	 1130
513.0	 1122
514.0	 1082
515.0	 1040
516.0	 1012
517.0	 1005
518.0	986.8
519.0	960.0
520.0	986.3
521.0	939.4
522.0	898.0
523.0	882.8
524.0	896.1
525.0	856.8
526.0	832.8
527.0	833.9
528.0	805.7
529.0	779.8
530.0	756.5
531.0	750.7
532.0	758.6
533.0	727.0
534.0	693.2
535.0	658.2
536.0	664.9
537.0	657.0
538.0	646.1
539.0	623.2
540.0	598.6
541.0	566.1
542.0	569.9
543.0	558.4
544.0	518.5
545.0	530.3
546.0	502.7
547.0	504.9
548.0	488.7
549.0	467.6
550.0	440.0
551.0	432.8
552.0	396.9
553.0	393.6
554.0	369.5
555.0	376.8
556.0	357.5
557.0	349.9
558.0	328.3
559.0	323.2
560.0	291.2
561.0	304.8
562.0	285.3
563.0	277.6
564.0	247.2
565.0	260.7
566.0	253.2
567.0	242.5
568.0	215.5
569.0	220.7
570.0	205.1
571.0	204.8
572.0	203.5
573.0	188.4
574.0	186.0
575.0	168.3
576.0	174.8
577.0	165.3
578.0	169.9
579.0	161.6
580.0	155.3
581.0	161.0
582.0	146.0
583.0	128.4
584.0	135.2
585.0	135.1
586.0	116.5
587.0	124.2
588.0	115.7
589.0	105.9
590.0	106.8
591.0	97.85
592.0	102.0
593.0	90.86
594.0	101.3
595.0	95.88
596.0	83.49
597.0	89.74
598.0	82.92
599.0	78.95
600.0	73.28
601.0	72.89
602.0	74.56
603.0	69.71
604.0	63.82
605.0	63.53
606.0	71.68
607.0	63.04
608.0	56.93
609.0	58.90
610.0	53.97
611.0	61.70
612.0	51.79
613.0	50.55
614.0	39.44
615.0	42.13
616.0	43.64
617.0	46.33
618.0	49.44
619.0	43.06
620.0	43.59
621.0	45.23
622.0	38.82
623.0	39.28
624.0	38.47
625.0	32.00
626.0	35.22
627.0	29.24
628.0	33.60
629.0	34.35
630.0	30.42
631.0	25.00
632.0	26.44
633.0	25.74
634.0	30.95
635.0	25.84
636.0	23.30
637.0	24.47
638.0	25.68
639.0	26.71
640.0	28.06
641.0	28.16
642.0	23.60
643.0	24.74
644.0	18.48
645.0	19.88
646.0	21.60
647.0	22.21
648.0	20.53
649.0	17.36
650.0	23.08
651.0	25.28
652.0	18.79
653.0	20.51
654.0	15.92
655.0	17.81
656.0	17.56
657.0	19.13
658.0	15.00
659.0	16.72
660.0	14.70
661.0	15.26
662.0	20.76
663.0	18.32
664.0	20.84
665.0	17.34
666.0	15.62
667.0	16.81
668.0	12.80
669.0	16.36
670.0	14.48
671.0	22.12
672.0	15.29
673.0	11.95
674.0	13.33
675.0	13.21
676.0	11.06
677.0	11.45
678.0	16.03
679.0	14.49
680.0	12.71
681.0	15.23
682.0	13.12
683.0	12.90
684.0	11.42
685.0	12.08
686.0	13.07
687.0	13.99
688.0	15.72
689.0	15.65
690.0	15.38
691.0	11.57
692.0	15.23
693.0	11.54
694.0	8.948
695.0	13.61
696.0	8.741
697.0	9.490
698.0	12.39
699.0	15.55
700.0	10.88
701.0	13.24
702.0	12.92
703.0	13.50
704.0	12.21
705.0	13.29
706.0	13.83
707.0	13.94
708.0	14.28
709.0	13.61
710.0	16.99
711.0	12.24
712.0	14.45
713.0	12.65
714.0	11.30
715.0	8.552
716.0	9.162
717.0	12.27
718.0	13.12
719.0	12.89
720.0	12.47
721.0	9.888
722.0	11.28
723.0	14.28
724.0	12.47
725.0	7.318
726.0	10.67
727.0	14.46
728.0	15.33
729.0	12.55
730.0	10.83
731.0	12.09
732.0	8.912
733.0	10.24
734.0	11.60
735.0	12.49
736.0	8.857
737.0	8.970
738.0	11.84
739.0	12.01
740.0	13.61
741.0	13.05
742.0	16.64
743.0	10.99
744.0	11.70
745.0	14.58
746.0	15.39
747.0	11.33
748.0	13.05
749.0	9.574
750.0	12.16
751.0	15.60
752.0	9.892
753.0	13.05
754.0	13.90
755.0	11.20
756.0	9.132
757.0	9.337
758.0	12.62
759.0	14.33
760.0	15.61
761.0	12.74
762.0	13.45
763.0	9.568
764.0	10.31
765.0	10.84
766.0	12.16
767.0	15.46
768.0	13.96
769.0	13.25
770.0	10.65
771.0	10.39
772.0	11.95
773.0	12.33
774.0	10.69
775.0	11.30
776.0	8.891
777.0	6.997
778.0	11.32
779.0	10.65
780.0	11.20

Sample:	'wa-6(EM)
File name:	20.FDS
Run Date:	'18:55:11, 07/11/2024
Operator:	WXH
Comment:	'

Instrument
Model:	F-4600 FL Spectrophotometer
Serial Number:	3080-002
ROM Version:	5J24000 02

Instrument Parameters
Measurement type:	Wavelength scan
Scan mode:	Emission
Data mode:	Fluorescence
EX WL:	460.0 nm
EM  Start WL:	480.0 nm
EM  End WL:	780.0 nm
Scan speed:	1200 nm/min
Delay:	0.0 s
EX Slit:	2.5 nm
EM Slit:	2.5 nm
PMT Voltage:	600 V
Response:	Auto 
Corrected spectra:	Off
Shutter control:	On

Peak integration
Integration method:	Rectangular
Sensitivity:	1
Threshold:	1.000

Peaks
No.	Valley(nm)	Valley(Data)
1	518.4	988.4
2	524.4	831.0
3	533.0	697.5
4	560.4	291.9
5	569.8	201.1
6	571.8	195.7
7	576.2	151.4
8	587.4	104.7
9	590.6	92.02
10	593.2	83.84
11	595.8	75.38
12	599.4	75.46
13	601.0	71.45
14	603.8	67.33
15	607.4	53.77
16	614.2	43.39
17	619.0	40.00
18	621.2	31.16
19	623.8	35.44
20	627.8	25.71
21	630.4	25.69
22	633.8	24.06
23	637.2	24.01
24	640.4	20.52
25	643.4	18.86
26	649.6	15.94
27	653.0	14.34
28	655.6	12.62
29	658.6	11.56
30	661.6	13.45
31	665.4	10.40
32	669.4	9.632
33	672.0	16.06
34	675.4	12.57
35	677.2	11.99
36	679.0	9.446
37	681.8	10.96
38	684.0	11.34
39	686.0	11.05
40	688.2	8.685
41	693.2	9.230
42	696.8	10.74
43	700.4	7.760
44	702.8	10.07
45	706.8	7.676
46	711.4	8.725
47	713.6	9.467
48	718.8	8.634
49	720.8	9.918
50	722.6	8.096
51	725.8	7.474
52	727.6	9.000
53	729.8	7.988
54	735.8	8.765
55	738.8	9.520
56	743.4	10.73
57	748.2	8.138
58	750.2	7.787
59	752.2	8.979
60	757.4	8.903
61	759.0	9.218
62	762.2	9.959
63	764.0	7.034
64	765.4	7.611
65	771.4	8.408
66	773.2	10.29
67	774.8	8.145
68	780.0	7.110

Data Points
nm	Data
480.0	65.49
481.0	67.75
482.0	68.90
483.0	88.20
484.0	100.8
485.0	129.0
486.0	161.1
487.0	178.8
488.0	227.1
489.0	253.1
490.0	299.7
491.0	337.8
492.0	430.4
493.0	452.9
494.0	514.7
495.0	612.2
496.0	689.8
497.0	754.9
498.0	780.0
499.0	840.2
500.0	893.4
501.0	967.6
502.0	 1028
503.0	 1069
504.0	 1078
505.0	 1085
506.0	 1122
507.0	 1145
508.0	 1153
509.0	 1124
510.0	 1115
511.0	 1099
512.0	 1108
513.0	 1096
514.0	 1087
515.0	 1074
516.0	 1036
517.0	 1004
518.0	 1019
519.0	 1015
520.0	971.2
521.0	961.1
522.0	911.1
523.0	881.5
524.0	848.2
525.0	852.2
526.0	839.5
527.0	843.4
528.0	801.6
529.0	824.4
530.0	787.5
531.0	746.1
532.0	719.9
533.0	697.5
534.0	721.6
535.0	722.7
536.0	695.5
537.0	671.4
538.0	637.2
539.0	629.0
540.0	594.9
541.0	585.0
542.0	565.4
543.0	552.6
544.0	525.0
545.0	518.2
546.0	494.7
547.0	476.2
548.0	455.3
549.0	461.7
550.0	435.7
551.0	434.6
552.0	406.6
553.0	385.9
554.0	393.6
555.0	385.1
556.0	372.0
557.0	326.5
558.0	318.2
559.0	308.5
560.0	306.0
561.0	302.0
562.0	300.0
563.0	275.7
564.0	252.3
565.0	249.7
566.0	222.1
567.0	233.8
568.0	218.4
569.0	211.5
570.0	208.1
571.0	208.7
572.0	197.5
573.0	197.2
574.0	181.7
575.0	184.7
576.0	158.0
577.0	167.4
578.0	165.1
579.0	156.2
580.0	155.3
581.0	140.3
582.0	135.4
583.0	141.2
584.0	134.1
585.0	126.0
586.0	121.5
587.0	105.5
588.0	123.4
589.0	114.9
590.0	111.4
591.0	95.08
592.0	96.16
593.0	87.11
594.0	95.84
595.0	82.63
596.0	76.30
597.0	81.59
598.0	82.09
599.0	75.52
600.0	84.17
601.0	71.45
602.0	74.97
603.0	72.10
604.0	73.40
605.0	65.87
606.0	62.99
607.0	54.06
608.0	57.37
609.0	58.26
610.0	58.38
611.0	57.75
612.0	50.70
613.0	54.12
614.0	44.81
615.0	46.69
616.0	45.68
617.0	44.31
618.0	42.40
619.0	40.00
620.0	43.97
621.0	34.48
622.0	37.11
623.0	36.12
624.0	35.99
625.0	41.21
626.0	39.36
627.0	32.50
628.0	29.79
629.0	33.95
630.0	29.23
631.0	30.82
632.0	27.59
633.0	27.33
634.0	25.94
635.0	27.79
636.0	30.40
637.0	24.04
638.0	28.60
639.0	22.76
640.0	21.96
641.0	24.72
642.0	19.30
643.0	20.22
644.0	21.76
645.0	26.19
646.0	20.20
647.0	20.52
648.0	17.83
649.0	19.69
650.0	19.67
651.0	20.42
652.0	21.97
653.0	14.34
654.0	18.41
655.0	14.13
656.0	15.93
657.0	13.86
658.0	15.19
659.0	17.42
660.0	19.48
661.0	15.86
662.0	16.96
663.0	20.70
664.0	17.10
665.0	11.77
666.0	15.33
667.0	13.20
668.0	10.60
669.0	12.44
670.0	12.07
671.0	16.37
672.0	16.06
673.0	19.04
674.0	15.38
675.0	17.37
676.0	15.32
677.0	13.59
678.0	15.13
679.0	9.446
680.0	17.72
681.0	12.56
682.0	11.76
683.0	14.59
684.0	11.34
685.0	10.77
686.0	11.05
687.0	14.70
688.0	9.871
689.0	12.64
690.0	13.78
691.0	15.09
692.0	12.47
693.0	10.89
694.0	12.22
695.0	16.60
696.0	13.76
697.0	10.96
698.0	19.98
699.0	9.352
700.0	9.398
701.0	9.924
702.0	14.58
703.0	12.95
704.0	14.53
705.0	12.22
706.0	10.89
707.0	9.922
708.0	13.51
709.0	10.38
710.0	11.86
711.0	10.81
712.0	10.76
713.0	11.56
714.0	10.93
715.0	13.20
716.0	12.45
717.0	13.69
718.0	10.42
719.0	11.76
720.0	11.56
721.0	11.41
722.0	14.32
723.0	8.999
724.0	9.765
725.0	12.53
726.0	7.848
727.0	12.32
728.0	12.56
729.0	10.49
730.0	11.41
731.0	12.88
732.0	11.53
733.0	13.82
734.0	11.72
735.0	11.42
736.0	10.54
737.0	11.89
738.0	11.83
739.0	9.722
740.0	14.01
741.0	12.89
742.0	12.00
743.0	12.17
744.0	13.65
745.0	14.58
746.0	12.32
747.0	10.33
748.0	9.249
749.0	9.460
750.0	7.962
751.0	12.53
752.0	10.05
753.0	10.26
754.0	19.78
755.0	12.89
756.0	11.59
757.0	9.184
758.0	10.40
759.0	9.218
760.0	13.28
761.0	14.85
762.0	11.02
763.0	11.41
764.0	7.034
765.0	11.26
766.0	10.38
767.0	11.53
768.0	11.07
769.0	8.663
770.0	10.05
771.0	11.11
772.0	10.76
773.0	12.03
774.0	13.65
775.0	10.39
776.0	10.66
777.0	10.45
778.0	10.52
779.0	7.443
780.0	7.110

Sample:	'wa-7(EM)
File name:	20.FDS
Run Date:	'18:55:41, 07/11/2024
Operator:	WXH
Comment:	'

Instrument
Model:	F-4600 FL Spectrophotometer
Serial Number:	3080-002
ROM Version:	5J24000 02

Instrument Parameters
Measurement type:	Wavelength scan
Scan mode:	Emission
Data mode:	Fluorescence
EX WL:	460.0 nm
EM  Start WL:	480.0 nm
EM  End WL:	780.0 nm
Scan speed:	1200 nm/min
Delay:	0.0 s
EX Slit:	2.5 nm
EM Slit:	2.5 nm
PMT Voltage:	600 V
Response:	Auto 
Corrected spectra:	Off
Shutter control:	On

Peak integration
Integration method:	Rectangular
Sensitivity:	1
Threshold:	1.000

Peaks
No.	Valley(nm)	Valley(Data)
1	508.2	 1130
2	512.4	 1081
3	516.8	996.8
4	520.4	915.9
5	529.0	764.5
6	556.2	319.0
7	568.6	213.6
8	573.6	178.6
9	577.0	159.7
10	587.0	114.9
11	591.2	95.85
12	596.8	77.17
13	598.4	74.04
14	601.0	70.82
15	603.4	60.59
16	610.2	49.29
17	612.8	49.29
18	615.8	38.22
19	619.6	34.48
20	622.6	34.08
21	624.8	32.49
22	626.4	31.82
23	629.6	27.79
24	633.0	24.16
25	639.6	16.20
26	643.8	17.56
27	648.0	17.29
28	652.2	16.37
29	654.2	15.79
30	659.0	12.62
31	660.8	12.60
32	664.4	12.55
33	667.8	11.93
34	672.8	13.01
35	674.6	11.21
36	678.4	9.957
37	681.4	11.08
38	685.0	10.09
39	688.6	8.834
40	692.0	7.897
41	693.8	7.963
42	696.4	10.50
43	700.0	10.16
44	702.4	9.817
45	708.4	9.328
46	711.4	9.058
47	714.8	7.848
48	719.0	10.37
49	721.8	7.975
50	723.8	8.950
51	727.4	5.001
52	729.2	8.668
53	732.0	10.30
54	735.0	9.549
55	738.2	8.978
56	740.0	8.037
57	744.0	6.109
58	750.0	7.340
59	754.4	9.541
60	758.8	6.096
61	762.2	6.880
62	766.8	8.938
63	769.2	9.000
64	771.2	7.186
65	775.0	10.96
66	777.2	8.277

Data Points
nm	Data
480.0	55.20
481.0	63.31
482.0	79.85
483.0	90.25
484.0	108.4
485.0	118.4
486.0	156.7
487.0	178.6
488.0	232.1
489.0	258.5
490.0	298.5
491.0	347.9
492.0	425.0
493.0	467.9
494.0	521.9
495.0	587.4
496.0	705.3
497.0	755.6
498.0	793.9
499.0	880.0
500.0	915.7
501.0	965.5
502.0	 1006
503.0	 1062
504.0	 1082
505.0	 1121
506.0	 1126
507.0	 1136
508.0	 1134
509.0	 1156
510.0	 1120
511.0	 1116
512.0	 1103
513.0	 1105
514.0	 1081
515.0	 1056
516.0	 1025
517.0	 1001
518.0	 1021
519.0	977.7
520.0	929.2
521.0	925.4
522.0	904.8
523.0	867.6
524.0	857.0
525.0	857.2
526.0	839.4
527.0	814.6
528.0	791.2
529.0	764.5
530.0	755.7
531.0	745.0
532.0	735.5
533.0	715.6
534.0	708.6
535.0	698.1
536.0	670.4
537.0	644.5
538.0	630.8
539.0	637.3
540.0	610.2
541.0	603.8
542.0	558.3
543.0	562.3
544.0	524.0
545.0	505.2
546.0	494.7
547.0	504.8
548.0	470.8
549.0	473.6
550.0	462.3
551.0	408.1
552.0	415.1
553.0	403.1
554.0	383.4
555.0	362.5
556.0	331.0
557.0	341.1
558.0	309.8
559.0	311.7
560.0	306.1
561.0	309.2
562.0	280.3
563.0	270.0
564.0	269.5
565.0	255.2
566.0	244.5
567.0	240.6
568.0	229.0
569.0	224.6
570.0	232.4
571.0	201.7
572.0	192.8
573.0	186.7
574.0	202.0
575.0	188.0
576.0	163.9
577.0	159.7
578.0	175.5
579.0	152.6
580.0	143.1
581.0	145.6
582.0	129.9
583.0	130.3
584.0	130.4
585.0	123.7
586.0	124.8
587.0	114.9
588.0	121.0
589.0	101.3
590.0	116.5
591.0	102.2
592.0	118.2
593.0	110.9
594.0	92.94
595.0	98.93
596.0	81.69
597.0	83.80
598.0	82.67
599.0	82.67
600.0	76.20
601.0	70.82
602.0	77.14
603.0	68.08
604.0	70.97
605.0	70.45
606.0	70.87
607.0	61.93
608.0	61.40
609.0	56.90
610.0	53.58
611.0	51.02
612.0	55.87
613.0	51.10
614.0	53.22
615.0	43.20
616.0	39.22
617.0	44.77
618.0	49.44
619.0	35.62
620.0	35.05
621.0	38.57
622.0	37.32
623.0	38.57
624.0	37.78
625.0	38.87
626.0	33.44
627.0	37.22
628.0	30.69
629.0	29.98
630.0	31.89
631.0	32.55
632.0	29.10
633.0	24.16
634.0	26.05
635.0	29.03
636.0	27.87
637.0	28.31
638.0	26.44
639.0	21.68
640.0	18.45
641.0	19.58
642.0	23.97
643.0	20.77
644.0	22.99
645.0	22.49
646.0	22.47
647.0	18.32
648.0	17.29
649.0	21.17
650.0	22.17
651.0	19.49
652.0	16.72
653.0	17.41
654.0	17.83
655.0	21.03
656.0	19.60
657.0	16.39
658.0	16.76
659.0	12.62
660.0	16.77
661.0	13.99
662.0	20.75
663.0	17.00
664.0	14.05
665.0	15.85
666.0	17.73
667.0	16.52
668.0	12.08
669.0	14.18
670.0	20.06
671.0	18.34
672.0	14.80
673.0	17.82
674.0	14.32
675.0	11.77
676.0	16.37
677.0	16.05
678.0	11.43
679.0	15.79
680.0	14.77
681.0	11.70
682.0	12.55
683.0	15.85
684.0	13.97
685.0	10.09
686.0	15.37
687.0	13.85
688.0	10.96
689.0	10.85
690.0	13.50
691.0	11.79
692.0	7.897
693.0	10.84
694.0	9.429
695.0	16.60
696.0	14.31
697.0	11.61
698.0	11.94
699.0	11.78
700.0	10.16
701.0	11.45
702.0	13.34
703.0	11.21
704.0	10.44
705.0	11.57
706.0	12.61
707.0	11.52
708.0	12.81
709.0	14.89
710.0	13.63
711.0	11.08
712.0	14.29
713.0	12.36
714.0	13.84
715.0	8.512
716.0	8.249
717.0	10.99
718.0	11.58
719.0	10.37
720.0	14.26
721.0	9.463
722.0	11.88
723.0	12.51
724.0	9.193
725.0	15.16
726.0	10.78
727.0	7.570
728.0	9.022
729.0	9.882
730.0	12.32
731.0	11.24
732.0	10.30
733.0	12.91
734.0	16.19
735.0	9.549
736.0	12.42
737.0	10.15
738.0	12.04
739.0	14.37
740.0	8.037
741.0	11.02
742.0	13.64
743.0	6.182
744.0	6.109
745.0	9.980
746.0	13.97
747.0	14.83
748.0	14.08
749.0	12.88
750.0	7.340
751.0	8.295
752.0	14.07
753.0	10.76
754.0	11.00
755.0	15.74
756.0	11.26
757.0	15.28
758.0	8.742
759.0	10.39
760.0	12.58
761.0	9.970
762.0	9.050
763.0	9.965
764.0	12.68
765.0	11.41
766.0	11.00
767.0	12.68
768.0	10.18
769.0	9.940
770.0	12.39
771.0	9.425
772.0	10.88
773.0	15.07
774.0	15.00
775.0	10.96
776.0	13.00
777.0	10.63
778.0	11.49
779.0	12.16
780.0	10.41

Sample:	'wa-8(EM)
File name:	20.FDS
Run Date:	'18:56:12, 07/11/2024
Operator:	WXH
Comment:	'

Instrument
Model:	F-4600 FL Spectrophotometer
Serial Number:	3080-002
ROM Version:	5J24000 02

Instrument Parameters
Measurement type:	Wavelength scan
Scan mode:	Emission
Data mode:	Fluorescence
EX WL:	460.0 nm
EM  Start WL:	480.0 nm
EM  End WL:	780.0 nm
Scan speed:	1200 nm/min
Delay:	0.0 s
EX Slit:	2.5 nm
EM Slit:	2.5 nm
PMT Voltage:	600 V
Response:	Auto 
Corrected spectra:	Off
Shutter control:	On

Peak integration
Integration method:	Rectangular
Sensitivity:	1
Threshold:	1.000

Peaks
No.	Valley(nm)	Valley(Data)
1	510.0	 1105
2	513.4	 1066
3	516.6	 1007
4	525.2	830.9
5	531.8	719.3
6	539.0	601.7
7	562.2	286.1
8	570.2	206.4
9	574.4	169.8
10	580.0	143.3
11	584.4	124.9
12	595.4	86.55
13	600.8	71.73
14	606.0	59.41
15	609.4	52.35
16	612.2	44.19
17	617.0	36.80
18	620.6	34.02
19	623.8	27.03
20	628.8	27.23
21	631.2	26.21
22	634.6	25.27
23	637.8	25.27
24	639.4	23.56
25	644.6	19.16
26	649.8	13.28
27	653.4	15.41
28	655.4	14.69
29	659.0	9.875
30	664.0	11.98
31	666.4	13.24
32	668.0	12.97
33	670.0	13.75
34	672.0	12.61
35	674.2	12.24
36	678.0	9.790
37	681.6	10.79
38	686.0	9.806
39	687.6	9.851
40	690.0	13.13
41	692.8	9.668
42	697.4	9.758
43	700.4	9.249
44	703.0	9.052
45	706.2	8.899
46	712.2	7.591
47	714.0	9.084
48	717.6	10.81
49	721.2	9.212
50	725.8	9.506
51	729.4	9.903
52	731.8	6.239
53	733.6	7.924
54	738.0	9.069
55	742.8	7.654
56	746.6	9.514
57	749.0	9.984
58	753.2	9.200
59	757.8	8.788
60	760.4	8.368
61	762.8	9.777
62	767.8	7.674
63	771.2	8.238
64	775.4	8.812
65	778.2	7.423

Data Points
nm	Data
480.0	59.28
481.0	61.13
482.0	76.51
483.0	98.55
484.0	105.2
485.0	128.5
486.0	147.2
487.0	180.8
488.0	216.2
489.0	280.2
490.0	304.9
491.0	339.3
492.0	398.2
493.0	483.0
494.0	521.1
495.0	605.0
496.0	673.4
497.0	720.1
498.0	811.4
499.0	922.5
500.0	924.3
501.0	970.1
502.0	 1022
503.0	 1090
504.0	 1114
505.0	 1122
506.0	 1132
507.0	 1123
508.0	 1144
509.0	 1144
510.0	 1105
511.0	 1127
512.0	 1136
513.0	 1075
514.0	 1111
515.0	 1112
516.0	 1040
517.0	 1032
518.0	 1026
519.0	993.9
520.0	953.9
521.0	932.6
522.0	910.7
523.0	903.8
524.0	883.6
525.0	850.0
526.0	847.4
527.0	848.7
528.0	825.8
529.0	809.5
530.0	781.8
531.0	758.7
532.0	722.8
533.0	738.5
534.0	708.8
535.0	714.1
536.0	666.9
537.0	640.1
538.0	641.4
539.0	601.7
540.0	636.2
541.0	616.5
542.0	579.0
543.0	552.8
544.0	542.0
545.0	521.9
546.0	497.7
547.0	497.7
548.0	460.4
549.0	456.7
550.0	433.6
551.0	415.9
552.0	410.8
553.0	406.3
554.0	384.9
555.0	344.0
556.0	357.8
557.0	342.7
558.0	321.7
559.0	328.7
560.0	308.3
561.0	286.4
562.0	293.1
563.0	294.7
564.0	268.7
565.0	258.7
566.0	245.5
567.0	256.3
568.0	243.8
569.0	246.0
570.0	208.5
571.0	221.8
572.0	201.9
573.0	185.9
574.0	173.8
575.0	179.1
576.0	176.7
577.0	178.4
578.0	161.5
579.0	150.5
580.0	143.3
581.0	150.3
582.0	152.9
583.0	132.6
584.0	132.9
585.0	127.6
586.0	129.7
587.0	104.6
588.0	108.3
589.0	110.5
590.0	98.97
591.0	98.58
592.0	92.78
593.0	92.53
594.0	91.82
595.0	89.03
596.0	92.41
597.0	84.02
598.0	80.85
599.0	79.49
600.0	78.30
601.0	74.58
602.0	74.60
603.0	74.75
604.0	69.75
605.0	63.00
606.0	59.41
607.0	60.13
608.0	60.70
609.0	53.46
610.0	59.32
611.0	51.70
612.0	47.49
613.0	46.79
614.0	49.51
615.0	41.83
616.0	43.57
617.0	36.80
618.0	40.17
619.0	40.72
620.0	38.88
621.0	39.36
622.0	40.00
623.0	32.43
624.0	33.81
625.0	33.07
626.0	34.88
627.0	32.82
628.0	30.29
629.0	29.21
630.0	31.75
631.0	28.61
632.0	29.18
633.0	25.06
634.0	26.45
635.0	27.16
636.0	33.16
637.0	27.73
638.0	27.89
639.0	27.64
640.0	24.95
641.0	25.55
642.0	26.03
643.0	25.36
644.0	21.42
645.0	22.90
646.0	23.33
647.0	20.81
648.0	18.31
649.0	18.71
650.0	15.06
651.0	18.99
652.0	18.30
653.0	16.06
654.0	19.44
655.0	17.55
656.0	17.46
657.0	17.40
658.0	15.48
659.0	9.875
660.0	14.17
661.0	19.03
662.0	18.61
663.0	14.31
664.0	11.98
665.0	17.70
666.0	15.19
667.0	16.34
668.0	12.97
669.0	19.53
670.0	13.75
671.0	16.26
672.0	12.61
673.0	16.48
674.0	14.06
675.0	13.01
676.0	16.81
677.0	14.74
678.0	9.790
679.0	15.39
680.0	16.16
681.0	18.30
682.0	10.88
683.0	15.48
684.0	14.81
685.0	15.04
686.0	9.806
687.0	12.93
688.0	14.49
689.0	13.84
690.0	13.13
691.0	13.87
692.0	12.04
693.0	10.95
694.0	10.96
695.0	11.24
696.0	10.28
697.0	11.00
698.0	11.31
699.0	12.43
700.0	9.605
701.0	11.88
702.0	12.25
703.0	9.052
704.0	13.45
705.0	9.877
706.0	10.83
707.0	9.831
708.0	11.99
709.0	15.83
710.0	11.64
711.0	9.061
712.0	8.026
713.0	11.97
714.0	9.084
715.0	14.33
716.0	12.55
717.0	11.28
718.0	14.38
719.0	14.32
720.0	12.55
721.0	10.37
722.0	13.73
723.0	14.88
724.0	12.39
725.0	14.10
726.0	9.521
727.0	11.61
728.0	13.62
729.0	11.81
730.0	12.82
731.0	9.728
732.0	9.016
733.0	10.60
734.0	9.696
735.0	14.50
736.0	9.434
737.0	10.06
738.0	9.069
739.0	13.31
740.0	11.12
741.0	12.75
742.0	9.281
743.0	11.03
744.0	13.17
745.0	14.26
746.0	11.03
747.0	10.49
748.0	14.53
749.0	9.984
750.0	10.65
751.0	14.84
752.0	9.748
753.0	9.533
754.0	12.15
755.0	12.82
756.0	11.52
757.0	10.00
758.0	9.237
759.0	9.756
760.0	9.830
761.0	12.43
762.0	12.45
763.0	10.01
764.0	11.67
765.0	12.23
766.0	14.58
767.0	12.01
768.0	8.388
769.0	11.36
770.0	11.81
771.0	8.735
772.0	10.17
773.0	11.81
774.0	10.47
775.0	10.90
776.0	9.360
777.0	12.95
778.0	8.876
779.0	13.96
780.0	11.27

Sample:	'wa-9(EM)
File name:	20.FDS
Run Date:	'18:56:42, 07/11/2024
Operator:	WXH
Comment:	'

Instrument
Model:	F-4600 FL Spectrophotometer
Serial Number:	3080-002
ROM Version:	5J24000 02

Instrument Parameters
Measurement type:	Wavelength scan
Scan mode:	Emission
Data mode:	Fluorescence
EX WL:	460.0 nm
EM  Start WL:	480.0 nm
EM  End WL:	780.0 nm
Scan speed:	1200 nm/min
Delay:	0.0 s
EX Slit:	2.5 nm
EM Slit:	2.5 nm
PMT Voltage:	600 V
Response:	Auto 
Corrected spectra:	Off
Shutter control:	On

Peak integration
Integration method:	Rectangular
Sensitivity:	1
Threshold:	1.000

Peaks
No.	Valley(nm)	Valley(Data)
1	514.2	 1051
2	526.4	789.9
3	533.4	672.4
4	543.2	528.6
5	554.0	372.5
6	560.0	295.3
7	564.0	242.3
8	572.6	191.1
9	590.0	104.2
10	593.2	94.74
11	597.6	73.88
12	600.8	71.38
13	603.2	60.79
14	607.8	51.03
15	609.6	51.33
16	612.0	50.38
17	615.4	39.13
18	617.8	38.43
19	619.8	38.04
20	623.6	32.92
21	629.8	25.37
22	632.2	27.83
23	636.8	24.33
24	640.0	22.72
25	645.0	14.51
26	648.4	20.82
27	651.0	19.18
28	655.0	12.87
29	659.8	14.99
30	664.2	11.05
31	668.4	13.53
32	673.8	7.388
33	680.0	8.163
34	683.2	9.106
35	686.8	9.195
36	689.0	9.333
37	693.0	9.415
38	698.2	8.271
39	701.2	7.640
40	703.2	9.670
41	705.2	10.69
42	708.6	7.819
43	711.6	9.634
44	713.8	10.50
45	716.6	10.59
46	719.4	7.585
47	723.4	10.25
48	730.0	12.51
49	732.8	8.150
50	734.4	8.111
51	736.2	10.79
52	738.4	9.645
53	740.8	10.17
54	742.6	9.091
55	745.2	7.758
56	748.8	8.275
57	750.0	9.977
58	754.6	6.202
59	759.4	9.893
60	763.6	7.808
61	766.2	10.82
62	767.8	9.859
63	769.8	6.626
64	773.4	10.10
65	775.2	9.471
66	780.0	10.94

Data Points
nm	Data
480.0	57.87
481.0	52.54
482.0	77.93
483.0	94.76
484.0	121.8
485.0	130.9
486.0	158.2
487.0	193.0
488.0	239.8
489.0	257.9
490.0	306.7
491.0	361.0
492.0	435.8
493.0	475.2
494.0	532.6
495.0	605.1
496.0	691.4
497.0	773.5
498.0	811.8
499.0	881.6
500.0	903.1
501.0	976.1
502.0	 1024
503.0	 1051
504.0	 1047
505.0	 1098
506.0	 1105
507.0	 1105
508.0	 1138
509.0	 1155
510.0	 1112
511.0	 1113
512.0	 1101
513.0	 1125
514.0	 1066
515.0	 1064
516.0	 1068
517.0	 1018
518.0	990.5
519.0	990.8
520.0	948.3
521.0	910.3
522.0	937.2
523.0	913.9
524.0	874.3
525.0	816.5
526.0	803.1
527.0	831.0
528.0	823.1
529.0	800.0
530.0	771.4
531.0	757.5
532.0	738.2
533.0	681.5
534.0	680.1
535.0	693.8
536.0	688.2
537.0	654.8
538.0	652.3
539.0	613.5
540.0	630.9
541.0	583.0
542.0	575.3
543.0	535.4
544.0	559.8
545.0	527.6
546.0	513.3
547.0	477.7
548.0	488.6
549.0	467.9
550.0	440.4
551.0	431.3
552.0	404.6
553.0	400.5
554.0	372.5
555.0	390.5
556.0	362.2
557.0	341.0
558.0	332.3
559.0	319.7
560.0	295.3
561.0	307.5
562.0	282.2
563.0	285.0
564.0	242.3
565.0	271.9
566.0	255.4
567.0	232.5
568.0	235.8
569.0	224.0
570.0	230.2
571.0	210.9
572.0	193.1
573.0	206.9
574.0	178.8
575.0	181.5
576.0	179.0
577.0	174.8
578.0	171.6
579.0	161.0
580.0	154.9
581.0	150.6
582.0	134.9
583.0	135.6
584.0	135.7
585.0	123.4
586.0	122.2
587.0	114.2
588.0	107.4
589.0	113.8
590.0	104.2
591.0	112.7
592.0	105.1
593.0	98.16
594.0	104.6
595.0	95.07
596.0	85.99
597.0	78.13
598.0	80.41
599.0	83.79
600.0	72.36
601.0	77.94
602.0	73.67
603.0	65.16
604.0	70.17
605.0	65.79
606.0	63.00
607.0	58.49
608.0	54.06
609.0	56.49
610.0	52.06
611.0	52.13
612.0	50.38
613.0	58.58
614.0	51.39
615.0	43.25
616.0	44.07
617.0	40.82
618.0	40.56
619.0	38.56
620.0	40.70
621.0	45.93
622.0	39.52
623.0	33.00
624.0	33.94
625.0	35.36
626.0	38.24
627.0	32.89
628.0	36.81
629.0	31.50
630.0	28.42
631.0	31.28
632.0	29.25
633.0	33.21
634.0	24.30
635.0	28.23
636.0	31.43
637.0	27.98
638.0	28.43
639.0	24.76
640.0	22.72
641.0	27.79
642.0	24.81
643.0	23.58
644.0	20.09
645.0	14.51
646.0	17.45
647.0	22.61
648.0	23.90
649.0	23.16
650.0	23.79
651.0	19.18
652.0	21.24
653.0	22.87
654.0	15.38
655.0	12.87
656.0	17.53
657.0	14.53
658.0	12.52
659.0	15.90
660.0	16.54
661.0	18.10
662.0	15.43
663.0	15.97
664.0	12.99
665.0	16.50
666.0	17.54
667.0	16.17
668.0	15.50
669.0	14.52
670.0	16.80
671.0	14.76
672.0	15.23
673.0	10.00
674.0	10.55
675.0	11.50
676.0	12.47
677.0	12.48
678.0	13.96
679.0	10.98
680.0	8.163
681.0	10.33
682.0	13.41
683.0	11.78
684.0	17.46
685.0	14.32
686.0	15.08
687.0	10.95
688.0	10.26
689.0	9.333
690.0	12.83
691.0	17.29
692.0	13.12
693.0	9.415
694.0	13.25
695.0	15.18
696.0	15.24
697.0	12.63
698.0	9.638
699.0	7.574
700.0	9.663
701.0	9.518
702.0	10.42
703.0	12.54
704.0	10.86
705.0	12.16
706.0	11.52
707.0	12.41
708.0	9.956
709.0	8.519
710.0	11.33
711.0	9.927
712.0	14.85
713.0	10.11
714.0	10.97
715.0	13.52
716.0	11.54
717.0	11.58
718.0	15.50
719.0	8.663
720.0	11.02
721.0	13.27
722.0	13.80
723.0	12.43
724.0	15.37
725.0	11.78
726.0	17.00
727.0	15.68
728.0	14.02
729.0	12.91
730.0	12.51
731.0	12.88
732.0	11.36
733.0	9.475
734.0	10.96
735.0	9.970
736.0	12.26
737.0	13.94
738.0	9.718
739.0	12.80
740.0	10.54
741.0	11.70
742.0	11.40
743.0	9.523
744.0	12.23
745.0	8.020
746.0	10.47
747.0	11.70
748.0	9.753
749.0	10.47
750.0	9.977
751.0	11.30
752.0	13.35
753.0	10.67
754.0	6.284
755.0	9.351
756.0	11.88
757.0	14.25
758.0	14.52
759.0	11.43
760.0	16.10
761.0	11.85
762.0	10.16
763.0	9.247
764.0	16.19
765.0	13.51
766.0	11.20
767.0	13.25
768.0	11.62
769.0	11.72
770.0	8.132
771.0	15.41
772.0	14.06
773.0	10.77
774.0	12.27
775.0	11.47
776.0	10.35
777.0	13.85
778.0	12.20
779.0	12.43
780.0	10.94

Sample:	'wa-10(EM)
File name:	20.FDS
Run Date:	'18:57:12, 07/11/2024
Operator:	WXH
Comment:	'

Instrument
Model:	F-4600 FL Spectrophotometer
Serial Number:	3080-002
ROM Version:	5J24000 02

Instrument Parameters
Measurement type:	Wavelength scan
Scan mode:	Emission
Data mode:	Fluorescence
EX WL:	460.0 nm
EM  Start WL:	480.0 nm
EM  End WL:	780.0 nm
Scan speed:	1200 nm/min
Delay:	0.0 s
EX Slit:	2.5 nm
EM Slit:	2.5 nm
PMT Voltage:	600 V
Response:	Auto 
Corrected spectra:	Off
Shutter control:	On

Peak integration
Integration method:	Rectangular
Sensitivity:	1
Threshold:	1.000

Peaks
No.	Valley(nm)	Valley(Data)
1	505.0	 1064
2	509.6	 1079
3	529.6	753.7
4	570.6	202.5
5	581.4	118.0
6	583.8	119.8
7	586.8	104.8
8	592.2	85.36
9	594.0	86.02
10	598.4	79.95
11	601.6	58.64
12	608.4	54.72
13	615.8	38.85
14	621.2	32.52
15	627.2	26.45
16	632.8	24.84
17	634.6	25.96
18	637.6	26.25
19	643.8	17.92
20	649.4	13.79
21	656.4	13.46
22	660.4	14.17
23	662.2	13.27
24	667.8	11.06
25	671.0	11.93
26	673.4	11.79
27	676.0	12.45
28	677.8	13.95
29	680.2	10.27
30	686.8	8.597
31	690.8	12.75
32	693.8	8.496
33	696.4	8.592
34	699.0	8.593
35	701.8	8.452
36	709.4	10.83
37	712.8	8.164
38	715.2	9.574
39	717.0	9.310
40	722.8	8.501
41	727.6	7.822
42	731.6	11.02
43	733.6	11.32
44	736.0	6.789
45	740.0	5.772
46	742.6	6.149
47	746.4	8.699
48	751.0	10.48
49	753.2	8.318
50	756.6	7.910
51	760.8	10.94
52	763.8	9.028
53	768.4	9.028
54	772.0	9.973
55	773.4	8.263
56	775.0	9.336
57	776.2	8.527
58	780.0	11.32

Data Points
nm	Data
480.0	68.89
481.0	70.50
482.0	76.95
483.0	78.12
484.0	104.2
485.0	130.7
486.0	145.0
487.0	180.2
488.0	216.3
489.0	258.1
490.0	322.3
491.0	360.7
492.0	408.6
493.0	469.0
494.0	531.3
495.0	594.2
496.0	680.6
497.0	749.7
498.0	770.0
499.0	826.8
500.0	916.8
501.0	976.3
502.0	 1018
503.0	 1069
504.0	 1080
505.0	 1064
506.0	 1093
507.0	 1151
508.0	 1116
509.0	 1122
510.0	 1117
511.0	 1120
512.0	 1098
513.0	 1113
514.0	 1062
515.0	 1063
516.0	 1027
517.0	 1020
518.0	 1006
519.0	962.4
520.0	958.7
521.0	939.6
522.0	925.7
523.0	894.1
524.0	884.0
525.0	882.9
526.0	847.1
527.0	848.9
528.0	797.8
529.0	790.5
530.0	769.5
531.0	769.3
532.0	768.8
533.0	724.9
534.0	682.4
535.0	685.6
536.0	693.1
537.0	674.6
538.0	642.2
539.0	641.3
540.0	594.4
541.0	605.9
542.0	571.1
543.0	558.7
544.0	563.5
545.0	532.0
546.0	515.6
547.0	485.3
548.0	462.5
549.0	447.7
550.0	431.0
551.0	412.7
552.0	416.5
553.0	401.5
554.0	379.2
555.0	375.5
556.0	365.4
557.0	350.2
558.0	328.2
559.0	330.0
560.0	316.7
561.0	302.0
562.0	298.9
563.0	282.7
564.0	284.7
565.0	263.7
566.0	250.6
567.0	247.7
568.0	218.0
569.0	216.8
570.0	203.9
571.0	212.1
572.0	199.0
573.0	184.5
574.0	187.6
575.0	179.9
576.0	175.9
577.0	172.5
578.0	158.8
579.0	140.6
580.0	144.7
581.0	126.8
582.0	134.1
583.0	129.6
584.0	121.5
585.0	126.5
586.0	129.1
587.0	113.5
588.0	115.9
589.0	123.6
590.0	115.9
591.0	99.31
592.0	91.69
593.0	97.98
594.0	86.02
595.0	94.32
596.0	88.50
597.0	86.84
598.0	83.96
599.0	82.59
600.0	85.49
601.0	65.33
602.0	63.09
603.0	69.68
604.0	74.08
605.0	70.12
606.0	65.19
607.0	61.96
608.0	58.05
609.0	63.84
610.0	57.38
611.0	54.93
612.0	54.05
613.0	52.24
614.0	44.59
615.0	42.82
616.0	38.90
617.0	47.93
618.0	45.74
619.0	44.61
620.0	42.32
621.0	37.05
622.0	38.97
623.0	37.54
624.0	39.81
625.0	30.36
626.0	32.02
627.0	27.74
628.0	31.20
629.0	30.92
630.0	34.07
631.0	33.99
632.0	30.97
633.0	28.41
634.0	27.28
635.0	30.22
636.0	29.63
637.0	27.28
638.0	30.19
639.0	29.77
640.0	23.39
641.0	23.95
642.0	23.34
643.0	19.68
644.0	18.48
645.0	21.22
646.0	22.09
647.0	18.97
648.0	15.97
649.0	16.14
650.0	20.45
651.0	18.07
652.0	23.57
653.0	18.24
654.0	18.33
655.0	14.46
656.0	14.34
657.0	13.56
658.0	15.49
659.0	17.59
660.0	16.42
661.0	16.36
662.0	14.53
663.0	14.91
664.0	19.57
665.0	18.82
666.0	13.86
667.0	11.58
668.0	12.91
669.0	17.68
670.0	15.41
671.0	11.93
672.0	16.18
673.0	15.77
674.0	18.53
675.0	14.57
676.0	12.45
677.0	19.40
678.0	15.44
679.0	14.31
680.0	12.44
681.0	14.45
682.0	17.64
683.0	13.69
684.0	13.19
685.0	13.22
686.0	9.849
687.0	10.43
688.0	12.97
689.0	14.83
690.0	17.88
691.0	12.80
692.0	15.80
693.0	11.62
694.0	12.28
695.0	14.08
696.0	10.47
697.0	12.65
698.0	12.80
699.0	8.593
700.0	15.64
701.0	11.46
702.0	8.588
703.0	11.24
704.0	13.94
705.0	16.49
706.0	15.90
707.0	10.95
708.0	11.97
709.0	11.00
710.0	12.25
711.0	10.26
712.0	10.84
713.0	9.116
714.0	10.82
715.0	10.75
716.0	13.89
717.0	9.310
718.0	13.30
719.0	12.26
720.0	17.25
721.0	13.05
722.0	11.52
723.0	8.689
724.0	10.70
725.0	12.89
726.0	13.13
727.0	9.594
728.0	9.748
729.0	11.75
730.0	12.11
731.0	13.58
732.0	13.35
733.0	12.80
734.0	12.70
735.0	11.76
736.0	6.789
737.0	12.99
738.0	13.46
739.0	9.882
740.0	5.772
741.0	8.047
742.0	8.856
743.0	8.016
744.0	13.81
745.0	15.71
746.0	11.76
747.0	10.37
748.0	13.45
749.0	17.75
750.0	13.72
751.0	10.48
752.0	14.46
753.0	8.811
754.0	15.32
755.0	10.06
756.0	10.91
757.0	12.75
758.0	12.72
759.0	14.65
760.0	12.03
761.0	12.43
762.0	14.10
763.0	10.07
764.0	10.75
765.0	9.952
766.0	13.39
767.0	11.65
768.0	11.58
769.0	9.868
770.0	12.03
771.0	10.07
772.0	9.973
773.0	9.006
774.0	10.72
775.0	9.336
776.0	11.31
777.0	13.76
778.0	13.89
779.0	13.94
780.0	11.32

Sample:	'wa-11(EM)
File name:	20.FDS
Run Date:	'18:57:42, 07/11/2024
Operator:	WXH
Comment:	'

Instrument
Model:	F-4600 FL Spectrophotometer
Serial Number:	3080-002
ROM Version:	5J24000 02

Instrument Parameters
Measurement type:	Wavelength scan
Scan mode:	Emission
Data mode:	Fluorescence
EX WL:	460.0 nm
EM  Start WL:	480.0 nm
EM  End WL:	780.0 nm
Scan speed:	1200 nm/min
Delay:	0.0 s
EX Slit:	2.5 nm
EM Slit:	2.5 nm
PMT Voltage:	600 V
Response:	Auto 
Corrected spectra:	Off
Shutter control:	On

Peak integration
Integration method:	Rectangular
Sensitivity:	1
Threshold:	1.000

Peaks
No.	Valley(nm)	Valley(Data)
1	507.6	 1100
2	510.0	 1082
3	529.4	759.7
4	534.4	665.0
5	542.6	535.2
6	548.0	457.4
7	558.0	287.4
8	568.2	206.9
9	571.4	189.0
10	581.2	137.5
11	585.8	114.4
12	590.4	95.47
13	591.8	96.56
14	594.8	84.43
15	606.2	56.66
16	608.2	51.14
17	612.4	43.17
18	617.2	33.17
19	619.0	35.90
20	623.2	34.51
21	627.6	26.70
22	630.0	24.27
23	634.6	21.30
24	636.6	22.29
25	638.4	21.91
26	645.0	18.76
27	646.6	16.36
28	650.2	15.27
29	652.0	13.82
30	657.4	14.07
31	661.0	13.51
32	663.2	11.88
33	666.6	11.01
34	668.4	11.23
35	671.6	10.02
36	678.8	9.433
37	682.4	12.12
38	688.0	9.143
39	691.4	10.52
40	696.0	8.207
41	699.8	8.444
42	703.6	8.038
43	707.0	10.36
44	708.6	8.650
45	714.0	9.101
46	717.2	8.509
47	721.0	10.49
48	722.2	9.876
49	725.4	9.000
50	731.6	8.499
51	733.6	6.688
52	736.0	7.034
53	737.8	6.970
54	741.2	7.264
55	744.6	7.533
56	749.6	7.318
57	752.4	8.876
58	754.0	6.705
59	756.2	8.466
60	761.2	7.053
61	764.2	8.145
62	771.8	6.519
63	773.8	7.657
64	775.6	5.736
65	780.0	10.58

Data Points
nm	Data
480.0	56.35
481.0	61.09
482.0	70.39
483.0	83.42
484.0	106.1
485.0	118.5
486.0	152.8
487.0	183.6
488.0	225.7
489.0	260.2
490.0	312.6
491.0	359.2
492.0	425.6
493.0	481.7
494.0	533.4
495.0	623.8
496.0	676.1
497.0	727.5
498.0	804.3
499.0	850.8
500.0	922.5
501.0	969.9
502.0	 1022
503.0	 1055
504.0	 1110
505.0	 1128
506.0	 1134
507.0	 1134
508.0	 1124
509.0	 1137
510.0	 1082
511.0	 1126
512.0	 1097
513.0	 1100
514.0	 1064
515.0	 1026
516.0	 1001
517.0	973.7
518.0	974.3
519.0	948.3
520.0	941.8
521.0	952.0
522.0	915.7
523.0	902.5
524.0	869.0
525.0	868.0
526.0	844.6
527.0	825.1
528.0	802.6
529.0	810.5
530.0	762.4
531.0	785.1
532.0	736.4
533.0	753.8
534.0	683.3
535.0	699.7
536.0	681.0
537.0	646.0
538.0	639.0
539.0	631.8
540.0	592.1
541.0	598.0
542.0	572.4
543.0	555.6
544.0	539.4
545.0	528.1
546.0	492.4
547.0	468.5
548.0	457.4
549.0	474.6
550.0	445.6
551.0	424.4
552.0	417.4
553.0	391.8
554.0	397.1
555.0	362.8
556.0	343.1
557.0	343.1
558.0	287.4
559.0	308.5
560.0	317.1
561.0	295.7
562.0	281.3
563.0	274.0
564.0	272.5
565.0	254.5
566.0	245.0
567.0	231.8
568.0	208.4
569.0	218.3
570.0	225.0
571.0	199.4
572.0	197.5
573.0	206.2
574.0	199.3
575.0	180.5
576.0	169.9
577.0	161.8
578.0	158.0
579.0	150.4
580.0	146.9
581.0	138.6
582.0	145.5
583.0	141.5
584.0	131.8
585.0	124.2
586.0	121.6
587.0	120.3
588.0	112.5
589.0	111.5
590.0	96.58
591.0	102.2
592.0	97.84
593.0	107.4
594.0	99.39
595.0	91.23
596.0	94.24
597.0	78.40
598.0	81.14
599.0	83.88
600.0	81.89
601.0	84.89
602.0	77.06
603.0	72.42
604.0	71.69
605.0	67.71
606.0	58.80
607.0	59.76
608.0	54.54
609.0	53.05
610.0	54.13
611.0	51.50
612.0	44.17
613.0	49.80
614.0	52.48
615.0	51.23
616.0	43.32
617.0	36.09
618.0	39.43
619.0	35.90
620.0	42.31
621.0	41.86
622.0	40.67
623.0	37.51
624.0	41.11
625.0	34.64
626.0	31.52
627.0	33.17
628.0	27.58
629.0	27.77
630.0	24.27
631.0	28.04
632.0	30.20
633.0	25.34
634.0	24.37
635.0	25.50
636.0	25.62
637.0	29.62
638.0	24.58
639.0	27.86
640.0	29.81
641.0	24.92
642.0	23.16
643.0	25.15
644.0	19.01
645.0	18.76
646.0	21.24
647.0	20.98
648.0	18.44
649.0	17.68
650.0	16.35
651.0	19.87
652.0	13.82
653.0	20.96
654.0	20.18
655.0	19.75
656.0	19.63
657.0	17.66
658.0	17.10
659.0	20.33
660.0	16.85
661.0	13.51
662.0	14.24
663.0	12.51
664.0	15.97
665.0	13.38
666.0	17.61
667.0	18.61
668.0	13.10
669.0	12.41
670.0	13.80
671.0	12.79
672.0	12.02
673.0	16.11
674.0	16.19
675.0	14.77
676.0	13.22
677.0	14.68
678.0	9.473
679.0	10.13
680.0	11.82
681.0	17.98
682.0	14.06
683.0	12.42
684.0	14.75
685.0	14.84
686.0	10.25
687.0	9.150
688.0	9.143
689.0	11.60
690.0	12.80
691.0	13.94
692.0	11.77
693.0	13.13
694.0	11.56
695.0	8.500
696.0	8.207
697.0	9.541
698.0	16.10
699.0	10.65
700.0	11.50
701.0	13.38
702.0	9.878
703.0	10.13
704.0	11.20
705.0	11.17
706.0	13.86
707.0	10.36
708.0	14.23
709.0	9.529
710.0	14.71
711.0	15.16
712.0	12.76
713.0	9.329
714.0	9.101
715.0	11.76
716.0	11.22
717.0	11.03
718.0	13.76
719.0	11.88
720.0	11.25
721.0	10.49
722.0	11.51
723.0	11.31
724.0	15.22
725.0	11.21
726.0	10.85
727.0	11.94
728.0	14.45
729.0	13.33
730.0	10.02
731.0	12.63
732.0	9.176
733.0	10.83
734.0	9.926
735.0	13.14
736.0	7.034
737.0	11.43
738.0	9.092
739.0	14.81
740.0	11.58
741.0	9.573
742.0	11.42
743.0	11.79
744.0	10.47
745.0	10.11
746.0	10.50
747.0	12.10
748.0	11.16
749.0	10.70
750.0	8.019
751.0	15.42
752.0	9.922
753.0	12.89
754.0	6.705
755.0	9.975
756.0	10.49
757.0	10.29
758.0	15.34
759.0	11.65
760.0	10.17
761.0	7.746
762.0	10.40
763.0	10.69
764.0	10.11
765.0	10.22
766.0	11.71
767.0	14.54
768.0	14.42
769.0	11.83
770.0	9.071
771.0	11.12
772.0	7.392
773.0	10.76
774.0	7.934
775.0	9.147
776.0	6.621
777.0	14.23
778.0	9.111
779.0	9.199
780.0	10.58

Sample:	'wa-12(EM)
File name:	20.FDS
Run Date:	'18:58:13, 07/11/2024
Operator:	WXH
Comment:	'

Instrument
Model:	F-4600 FL Spectrophotometer
Serial Number:	3080-002
ROM Version:	5J24000 02

Instrument Parameters
Measurement type:	Wavelength scan
Scan mode:	Emission
Data mode:	Fluorescence
EX WL:	460.0 nm
EM  Start WL:	480.0 nm
EM  End WL:	780.0 nm
Scan speed:	1200 nm/min
Delay:	0.0 s
EX Slit:	2.5 nm
EM Slit:	2.5 nm
PMT Voltage:	600 V
Response:	Auto 
Corrected spectra:	Off
Shutter control:	On

Peak integration
Integration method:	Rectangular
Sensitivity:	1
Threshold:	1.000

Peaks
No.	Valley(nm)	Valley(Data)
1	512.2	 1077
2	518.0	942.0
3	524.2	876.2
4	529.4	751.3
5	531.4	723.9
6	563.0	255.3
7	588.2	106.0
8	590.8	85.91
9	593.0	82.42
10	598.0	71.88
11	602.0	61.62
12	604.8	53.12
13	611.8	45.10
14	618.2	35.75
15	622.0	33.14
16	630.0	23.47
17	632.2	23.96
18	634.2	24.92
19	638.0	22.15
20	640.2	21.61
21	642.8	18.38
22	648.8	17.13
23	652.4	15.60
24	654.2	15.55
25	659.4	11.94
26	661.2	13.88
27	663.6	14.92
28	667.0	11.11
29	669.8	11.71
30	672.8	9.469
31	680.2	10.39
32	687.6	9.778
33	691.4	9.878
34	693.6	10.98
35	700.4	7.976
36	702.4	8.224
37	704.8	7.270
38	709.2	11.06
39	713.2	9.420
40	715.0	7.475
41	717.2	6.800
42	722.0	5.305
43	727.6	7.854
44	731.4	9.271
45	733.8	8.508
46	735.8	10.96
47	738.8	8.377
48	741.0	7.685
49	743.2	9.205
50	747.2	10.12
51	749.8	9.210
52	753.8	7.900
53	755.8	5.909
54	761.8	7.426
55	767.6	5.584
56	773.2	6.444
57	775.4	9.063
58	778.6	8.347

Data Points
nm	Data
480.0	40.02
481.0	53.72
482.0	66.71
483.0	77.52
484.0	97.26
485.0	125.4
486.0	151.9
487.0	188.3
488.0	226.0
489.0	278.4
490.0	292.3
491.0	364.0
492.0	422.8
493.0	482.3
494.0	512.6
495.0	605.0
496.0	676.2
497.0	747.7
498.0	810.2
499.0	851.5
500.0	901.3
501.0	931.2
502.0	986.4
503.0	 1045
504.0	 1097
505.0	 1098
506.0	 1128
507.0	 1119
508.0	 1172
509.0	 1160
510.0	 1102
511.0	 1081
512.0	 1102
513.0	 1096
514.0	 1107
515.0	 1072
516.0	 1037
517.0	 1003
518.0	942.0
519.0	987.7
520.0	974.1
521.0	943.9
522.0	907.5
523.0	918.1
524.0	885.8
525.0	887.2
526.0	844.1
527.0	804.0
528.0	794.7
529.0	765.8
530.0	775.0
531.0	737.7
532.0	745.1
533.0	733.2
534.0	702.8
535.0	693.4
536.0	652.6
537.0	655.9
538.0	625.0
539.0	621.7
540.0	613.7
541.0	586.3
542.0	550.7
543.0	578.5
544.0	535.5
545.0	521.4
546.0	501.8
547.0	485.2
548.0	462.0
549.0	440.7
550.0	432.9
551.0	436.5
552.0	405.3
553.0	410.6
554.0	380.0
555.0	361.1
556.0	337.5
557.0	337.1
558.0	339.4
559.0	321.4
560.0	316.3
561.0	303.0
562.0	257.9
563.0	255.3
564.0	272.1
565.0	267.0
566.0	236.2
567.0	240.0
568.0	228.5
569.0	229.8
570.0	203.6
571.0	206.7
572.0	199.0
573.0	203.8
574.0	185.6
575.0	182.3
576.0	169.8
577.0	167.6
578.0	167.9
579.0	159.9
580.0	146.5
581.0	148.2
582.0	143.3
583.0	136.7
584.0	135.1
585.0	129.2
586.0	128.9
587.0	121.5
588.0	110.2
589.0	122.7
590.0	101.1
591.0	87.66
592.0	100.9
593.0	82.42
594.0	99.97
595.0	89.95
596.0	88.87
597.0	74.42
598.0	71.88
599.0	80.22
600.0	72.24
601.0	72.55
602.0	61.62
603.0	70.81
604.0	65.11
605.0	55.63
606.0	61.80
607.0	59.22
608.0	63.35
609.0	59.99
610.0	58.48
611.0	58.14
612.0	52.42
613.0	60.06
614.0	56.14
615.0	51.86
616.0	49.97
617.0	46.30
618.0	40.01
619.0	40.15
620.0	42.89
621.0	42.38
622.0	33.14
623.0	37.63
624.0	34.93
625.0	29.90
626.0	31.28
627.0	32.45
628.0	29.52
629.0	25.19
630.0	23.47
631.0	29.59
632.0	26.28
633.0	29.31
634.0	26.53
635.0	27.55
636.0	28.77
637.0	28.46
638.0	22.15
639.0	29.45
640.0	26.10
641.0	21.86
642.0	23.97
643.0	21.32
644.0	22.96
645.0	25.62
646.0	21.42
647.0	18.88
648.0	20.14
649.0	17.99
650.0	20.59
651.0	18.01
652.0	16.69
653.0	19.19
654.0	18.41
655.0	21.27
656.0	15.91
657.0	14.23
658.0	13.56
659.0	13.21
660.0	14.96
661.0	15.32
662.0	14.92
663.0	15.05
664.0	15.95
665.0	15.61
666.0	15.34
667.0	11.11
668.0	15.00
669.0	16.24
670.0	12.73
671.0	15.19
672.0	11.59
673.0	10.13
674.0	9.676
675.0	14.18
676.0	14.87
677.0	11.81
678.0	11.52
679.0	10.92
680.0	10.55
681.0	10.83
682.0	11.55
683.0	14.30
684.0	10.97
685.0	10.41
686.0	15.70
687.0	11.38
688.0	12.04
689.0	13.71
690.0	12.42
691.0	11.63
692.0	15.13
693.0	15.83
694.0	12.25
695.0	12.44
696.0	14.56
697.0	13.53
698.0	13.32
699.0	9.436
700.0	10.86
701.0	14.93
702.0	8.484
703.0	14.52
704.0	9.653
705.0	9.677
706.0	16.01
707.0	11.31
708.0	13.08
709.0	11.67
710.0	14.55
711.0	13.64
712.0	13.62
713.0	12.14
714.0	13.71
715.0	7.475
716.0	11.97
717.0	8.525
718.0	9.059
719.0	10.86
720.0	9.744
721.0	11.54
722.0	5.305
723.0	12.10
724.0	12.82
725.0	13.89
726.0	13.76
727.0	9.950
728.0	10.54
729.0	14.46
730.0	11.96
731.0	14.28
732.0	10.10
733.0	14.37
734.0	10.90
735.0	13.49
736.0	12.07
737.0	16.53
738.0	10.93
739.0	9.321
740.0	9.905
741.0	7.685
742.0	10.15
743.0	11.28
744.0	12.41
745.0	11.35
746.0	15.38
747.0	11.16
748.0	13.82
749.0	10.70
750.0	9.751
751.0	10.70
752.0	11.72
753.0	13.35
754.0	7.942
755.0	12.10
756.0	8.233
757.0	8.307
758.0	10.25
759.0	12.96
760.0	12.58
761.0	9.994
762.0	10.14
763.0	14.88
764.0	11.11
765.0	10.16
766.0	8.363
767.0	9.519
768.0	9.044
769.0	12.38
770.0	14.15
771.0	11.44
772.0	13.01
773.0	7.387
774.0	10.44
775.0	9.573
776.0	14.40
777.0	9.581
778.0	9.887
779.0	11.16
780.0	14.69

Sample:	'wa-13(EM)
File name:	20.FDS
Run Date:	'18:58:43, 07/11/2024
Operator:	WXH
Comment:	'

Instrument
Model:	F-4600 FL Spectrophotometer
Serial Number:	3080-002
ROM Version:	5J24000 02

Instrument Parameters
Measurement type:	Wavelength scan
Scan mode:	Emission
Data mode:	Fluorescence
EX WL:	460.0 nm
EM  Start WL:	480.0 nm
EM  End WL:	780.0 nm
Scan speed:	1200 nm/min
Delay:	0.0 s
EX Slit:	2.5 nm
EM Slit:	2.5 nm
PMT Voltage:	600 V
Response:	Auto 
Corrected spectra:	Off
Shutter control:	On

Peak integration
Integration method:	Rectangular
Sensitivity:	1
Threshold:	1.000

Peaks
No.	Valley(nm)	Valley(Data)
1	507.2	 1107
2	511.4	 1089
3	536.6	658.2
4	542.0	535.1
5	565.4	242.2
6	570.4	206.3
7	574.8	169.5
8	577.8	157.1
9	580.6	136.7
10	586.6	110.0
11	589.0	103.0
12	593.6	89.58
13	598.6	66.57
14	606.2	58.12
15	612.6	42.75
16	615.6	42.02
17	618.0	35.53
18	622.2	32.07
19	624.8	30.44
20	627.0	29.92
21	630.6	26.49
22	635.4	22.03
23	637.4	20.26
24	645.0	17.81
25	648.4	16.44
26	651.0	14.72
27	656.6	12.13
28	658.6	13.78
29	664.6	13.91
30	667.8	9.478
31	670.6	12.70
32	672.0	9.996
33	676.6	11.45
34	679.4	10.01
35	683.6	10.52
36	685.6	9.924
37	687.4	9.619
38	689.4	9.577
39	691.6	9.167
40	698.2	9.215
41	702.8	10.49
42	705.0	10.77
43	708.6	8.722
44	715.8	6.196
45	719.0	8.635
46	722.2	11.22
47	724.0	7.478
48	726.8	9.257
49	730.0	7.627
50	733.6	6.118
51	737.8	8.701
52	740.8	10.21
53	742.8	9.401
54	746.0	8.866
55	752.4	7.606
56	754.8	7.382
57	759.8	5.468
58	761.8	8.480
59	765.0	8.667
60	770.4	7.870
61	774.6	10.93
62	778.6	7.389

Data Points
nm	Data
480.0	38.33
481.0	64.91
482.0	74.96
483.0	88.67
484.0	102.1
485.0	126.3
486.0	148.6
487.0	186.1
488.0	210.2
489.0	263.7
490.0	317.7
491.0	369.3
492.0	411.1
493.0	480.5
494.0	543.8
495.0	604.1
496.0	691.9
497.0	745.0
498.0	824.7
499.0	832.8
500.0	915.1
501.0	965.9
502.0	988.2
503.0	 1035
504.0	 1120
505.0	 1115
506.0	 1132
507.0	 1128
508.0	 1116
509.0	 1129
510.0	 1126
511.0	 1119
512.0	 1094
513.0	 1118
514.0	 1100
515.0	 1073
516.0	 1037
517.0	 1018
518.0	995.4
519.0	975.2
520.0	972.5
521.0	946.7
522.0	919.3
523.0	901.8
524.0	885.9
525.0	869.0
526.0	838.3
527.0	824.7
528.0	811.6
529.0	829.6
530.0	773.2
531.0	750.6
532.0	718.6
533.0	701.9
534.0	705.6
535.0	669.2
536.0	658.9
537.0	672.4
538.0	662.0
539.0	626.5
540.0	595.2
541.0	575.3
542.0	535.1
543.0	559.1
544.0	552.2
545.0	549.8
546.0	514.3
547.0	508.3
548.0	470.1
549.0	468.0
550.0	429.4
551.0	426.3
552.0	405.2
553.0	384.3
554.0	382.0
555.0	370.4
556.0	371.9
557.0	333.8
558.0	322.0
559.0	331.4
560.0	297.3
561.0	305.1
562.0	284.1
563.0	261.9
564.0	254.0
565.0	242.5
566.0	248.0
567.0	230.0
568.0	237.2
569.0	221.3
570.0	213.7
571.0	220.7
572.0	222.5
573.0	193.2
574.0	176.8
575.0	181.4
576.0	179.5
577.0	163.8
578.0	166.7
579.0	164.3
580.0	145.3
581.0	142.8
582.0	137.4
583.0	137.4
584.0	139.3
585.0	120.2
586.0	114.6
587.0	126.7
588.0	110.2
589.0	103.0
590.0	105.0
591.0	95.34
592.0	95.31
593.0	97.03
594.0	102.5
595.0	87.57
596.0	86.48
597.0	76.67
598.0	75.49
599.0	73.64
600.0	83.09
601.0	76.24
602.0	72.33
603.0	65.35
604.0	65.26
605.0	61.11
606.0	62.12
607.0	62.37
608.0	60.16
609.0	56.66
610.0	55.16
611.0	46.94
612.0	44.74
613.0	48.81
614.0	47.66
615.0	44.89
616.0	46.02
617.0	43.60
618.0	35.53
619.0	41.92
620.0	42.36
621.0	37.57
622.0	34.52
623.0	36.41
624.0	31.74
625.0	32.32
626.0	30.36
627.0	29.92
628.0	34.66
629.0	33.74
630.0	31.23
631.0	30.10
632.0	31.72
633.0	31.06
634.0	24.78
635.0	26.37
636.0	32.05
637.0	26.16
638.0	25.10
639.0	22.59
640.0	27.14
641.0	25.58
642.0	25.78
643.0	23.37
644.0	23.28
645.0	17.81
646.0	21.42
647.0	30.80
648.0	18.90
649.0	19.45
650.0	19.78
651.0	14.72
652.0	18.38
653.0	17.69
654.0	15.74
655.0	13.19
656.0	12.45
657.0	17.09
658.0	13.80
659.0	16.35
660.0	17.67
661.0	19.96
662.0	17.08
663.0	16.37
664.0	15.57
665.0	14.42
666.0	18.61
667.0	18.87
668.0	11.32
669.0	17.59
670.0	14.09
671.0	16.67
672.0	9.996
673.0	13.78
674.0	13.98
675.0	15.53
676.0	13.76
677.0	12.53
678.0	12.25
679.0	10.41
680.0	14.82
681.0	13.66
682.0	14.90
683.0	15.18
684.0	14.52
685.0	14.41
686.0	11.48
687.0	12.84
688.0	10.14
689.0	11.35
690.0	13.13
691.0	10.53
692.0	9.234
693.0	12.00
694.0	16.82
695.0	13.91
696.0	13.33
697.0	12.46
698.0	10.76
699.0	11.24
700.0	14.97
701.0	14.79
702.0	12.18
703.0	11.59
704.0	12.20
705.0	10.77
706.0	11.63
707.0	12.21
708.0	10.86
709.0	11.22
710.0	10.90
711.0	13.41
712.0	13.39
713.0	11.54
714.0	11.74
715.0	7.929
716.0	7.037
717.0	7.674
718.0	12.12
719.0	8.635
720.0	15.01
721.0	13.64
722.0	12.43
723.0	14.73
724.0	7.478
725.0	10.71
726.0	12.44
727.0	10.64
728.0	11.79
729.0	9.708
730.0	7.627
731.0	10.29
732.0	12.99
733.0	10.84
734.0	11.86
735.0	11.36
736.0	10.87
737.0	11.59
738.0	9.576
739.0	13.22
740.0	12.41
741.0	11.37
742.0	15.43
743.0	10.77
744.0	11.26
745.0	10.11
746.0	8.866
747.0	10.13
748.0	11.45
749.0	11.39
750.0	16.97
751.0	13.80
752.0	8.857
753.0	9.978
754.0	15.01
755.0	9.360
756.0	14.48
757.0	13.73
758.0	13.57
759.0	10.06
760.0	6.803
761.0	12.37
762.0	11.56
763.0	16.14
764.0	12.52
765.0	8.667
766.0	9.805
767.0	12.77
768.0	11.95
769.0	10.93
770.0	10.49
771.0	11.73
772.0	16.32
773.0	11.92
774.0	11.60
775.0	16.02
776.0	12.34
777.0	12.58
778.0	11.69
779.0	8.861
780.0	15.26

Sample:	'wa-14(EM)
File name:	20.FDS
Run Date:	'18:59:13, 07/11/2024
Operator:	WXH
Comment:	'

Instrument
Model:	F-4600 FL Spectrophotometer
Serial Number:	3080-002
ROM Version:	5J24000 02

Instrument Parameters
Measurement type:	Wavelength scan
Scan mode:	Emission
Data mode:	Fluorescence
EX WL:	460.0 nm
EM  Start WL:	480.0 nm
EM  End WL:	780.0 nm
Scan speed:	1200 nm/min
Delay:	0.0 s
EX Slit:	2.5 nm
EM Slit:	2.5 nm
PMT Voltage:	600 V
Response:	Auto 
Corrected spectra:	Off
Shutter control:	On

Peak integration
Integration method:	Rectangular
Sensitivity:	1
Threshold:	1.000

Peaks
No.	Valley(nm)	Valley(Data)
1	508.0	 1132
2	511.0	 1082
3	514.4	 1060
4	534.4	650.3
5	541.8	584.2
6	559.0	304.3
7	563.8	251.3
8	576.6	166.2
9	579.8	155.0
10	586.4	115.1
11	589.2	111.5
12	591.0	97.83
13	593.0	88.76
14	597.6	75.15
15	600.0	73.99
16	604.4	61.74
17	606.2	56.82
18	608.0	50.96
19	610.6	42.62
20	613.2	43.69
21	617.8	38.78
22	623.4	30.38
23	625.6	30.16
24	627.6	27.20
25	630.8	26.48
26	635.8	19.56
27	638.4	20.05
28	641.2	20.88
29	643.0	20.68
30	644.2	20.03
31	647.6	16.10
32	652.8	13.39
33	656.0	12.69
34	663.4	13.22
35	668.4	10.94
36	669.6	11.67
37	672.8	14.79
38	675.2	13.77
39	679.4	14.45
40	683.0	9.427
41	685.6	10.49
42	690.2	8.977
43	692.4	7.690
44	698.8	7.359
45	701.0	10.82
46	704.6	9.911
47	706.8	10.64
48	709.8	8.371
49	712.0	8.069
50	716.4	10.68
51	718.8	8.364
52	722.0	10.60
53	725.0	8.886
54	731.0	10.40
55	733.0	8.206
56	736.4	8.325
57	737.6	6.590
58	740.4	8.796
59	743.4	8.397
60	745.4	8.502
61	748.8	8.479
62	750.4	8.320
63	754.2	8.649
64	757.4	7.347
65	761.2	7.602
66	765.2	8.066
67	766.8	6.930
68	771.2	9.371
69	773.2	7.863
70	776.6	8.986
71	778.6	7.961

Data Points
nm	Data
480.0	55.05
481.0	68.12
482.0	76.32
483.0	97.66
484.0	104.1
485.0	124.2
486.0	146.5
487.0	187.0
488.0	223.9
489.0	262.8
490.0	295.1
491.0	353.5
492.0	411.8
493.0	481.1
494.0	545.5
495.0	612.3
496.0	671.3
497.0	748.0
498.0	795.5
499.0	854.6
500.0	922.3
501.0	957.0
502.0	 1036
503.0	 1040
504.0	 1079
505.0	 1079
506.0	 1087
507.0	 1146
508.0	 1132
509.0	 1158
510.0	 1157
511.0	 1082
512.0	 1093
513.0	 1071
514.0	 1065
515.0	 1067
516.0	 1047
517.0	 1043
518.0	 1004
519.0	985.0
520.0	970.9
521.0	937.0
522.0	908.7
523.0	899.8
524.0	888.1
525.0	893.4
526.0	865.4
527.0	808.8
528.0	793.0
529.0	762.8
530.0	787.6
531.0	738.1
532.0	739.6
533.0	714.8
534.0	672.3
535.0	668.4
536.0	692.2
537.0	681.0
538.0	644.2
539.0	620.6
540.0	604.1
541.0	605.2
542.0	608.0
543.0	571.1
544.0	540.8
545.0	544.6
546.0	517.4
547.0	485.0
548.0	491.7
549.0	464.0
550.0	445.1
551.0	409.3
552.0	403.4
553.0	388.1
554.0	388.7
555.0	357.1
556.0	362.6
557.0	360.5
558.0	323.7
559.0	304.3
560.0	308.7
561.0	280.5
562.0	270.7
563.0	269.1
564.0	262.5
565.0	261.3
566.0	235.9
567.0	229.6
568.0	218.2
569.0	220.4
570.0	213.2
571.0	209.6
572.0	200.4
573.0	201.4
574.0	192.9
575.0	178.4
576.0	177.0
577.0	183.3
578.0	168.8
579.0	161.5
580.0	159.1
581.0	153.0
582.0	150.2
583.0	144.1
584.0	132.6
585.0	115.2
586.0	119.3
587.0	123.3
588.0	119.1
589.0	112.6
590.0	114.3
591.0	97.83
592.0	109.0
593.0	88.76
594.0	94.33
595.0	88.46
596.0	93.49
597.0	82.29
598.0	88.97
599.0	82.12
600.0	73.99
601.0	75.12
602.0	71.42
603.0	66.76
604.0	63.73
605.0	70.21
606.0	60.75
607.0	61.52
608.0	50.96
609.0	60.56
610.0	51.56
611.0	47.95
612.0	47.34
613.0	45.61
614.0	46.22
615.0	49.68
616.0	48.83
617.0	43.37
618.0	41.80
619.0	40.30
620.0	44.09
621.0	45.60
622.0	37.54
623.0	32.72
624.0	34.15
625.0	35.07
626.0	33.47
627.0	34.37
628.0	27.63
629.0	33.49
630.0	30.74
631.0	27.83
632.0	30.11
633.0	27.89
634.0	27.75
635.0	24.62
636.0	21.87
637.0	23.10
638.0	24.65
639.0	24.98
640.0	30.05
641.0	22.13
642.0	24.18
643.0	20.68
644.0	21.01
645.0	25.09
646.0	24.91
647.0	18.30
648.0	19.73
649.0	21.67
650.0	20.71
651.0	17.41
652.0	16.65
653.0	14.08
654.0	16.23
655.0	14.97
656.0	12.69
657.0	13.99
658.0	19.33
659.0	16.34
660.0	16.92
661.0	16.58
662.0	18.56
663.0	13.97
664.0	17.49
665.0	20.17
666.0	16.32
667.0	17.15
668.0	13.35
669.0	15.14
670.0	14.15
671.0	17.81
672.0	16.54
673.0	16.21
674.0	15.41
675.0	14.24
676.0	13.85
677.0	18.42
678.0	14.62
679.0	15.99
680.0	16.71
681.0	14.93
682.0	13.65
683.0	9.427
684.0	14.99
685.0	15.79
686.0	15.12
687.0	13.08
688.0	14.36
689.0	13.84
690.0	9.937
691.0	11.31
692.0	11.86
693.0	12.44
694.0	12.87
695.0	11.82
696.0	15.73
697.0	16.11
698.0	12.29
699.0	13.20
700.0	15.09
701.0	10.82
702.0	11.36
703.0	12.83
704.0	11.39
705.0	10.17
706.0	15.13
707.0	11.98
708.0	19.24
709.0	11.24
710.0	9.498
711.0	9.260
712.0	8.069
713.0	13.24
714.0	14.63
715.0	14.26
716.0	12.87
717.0	12.08
718.0	11.76
719.0	9.145
720.0	14.89
721.0	12.06
722.0	10.60
723.0	15.15
724.0	14.88
725.0	8.886
726.0	10.15
727.0	15.26
728.0	15.70
729.0	12.68
730.0	11.36
731.0	10.40
732.0	14.51
733.0	8.206
734.0	11.08
735.0	11.78
736.0	10.91
737.0	10.85
738.0	10.06
739.0	12.76
740.0	10.89
741.0	13.40
742.0	12.18
743.0	11.46
744.0	10.50
745.0	11.53
746.0	11.42
747.0	13.67
748.0	10.95
749.0	9.622
750.0	8.331
751.0	11.49
752.0	12.99
753.0	10.40
754.0	9.715
755.0	11.57
756.0	11.92
757.0	12.08
758.0	8.907
759.0	16.04
760.0	11.74
761.0	8.494
762.0	11.41
763.0	11.44
764.0	10.14
765.0	10.34
766.0	10.98
767.0	8.011
768.0	11.31
769.0	13.94
770.0	15.10
771.0	10.31
772.0	15.35
773.0	10.13
774.0	12.90
775.0	10.96
776.0	9.585
777.0	13.57
778.0	17.06
779.0	10.27
780.0	11.26

Sample:	'wa-15(EM)
File name:	20.FDS
Run Date:	'18:59:43, 07/11/2024
Operator:	WXH
Comment:	'

Instrument
Model:	F-4600 FL Spectrophotometer
Serial Number:	3080-002
ROM Version:	5J24000 02

Instrument Parameters
Measurement type:	Wavelength scan
Scan mode:	Emission
Data mode:	Fluorescence
EX WL:	460.0 nm
EM  Start WL:	480.0 nm
EM  End WL:	780.0 nm
Scan speed:	1200 nm/min
Delay:	0.0 s
EX Slit:	2.5 nm
EM Slit:	2.5 nm
PMT Voltage:	600 V
Response:	Auto 
Corrected spectra:	Off
Shutter control:	On

Peak integration
Integration method:	Rectangular
Sensitivity:	1
Threshold:	1.000

Peaks
No.	Valley(nm)	Valley(Data)
1	504.4	 1070
2	510.2	 1113
3	545.4	509.8
4	558.2	313.3
5	569.0	204.1
6	572.8	186.2
7	576.2	158.5
8	583.8	123.5
9	586.8	107.9
10	592.6	90.07
11	598.4	71.70
12	601.8	63.49
13	605.8	55.52
14	611.0	41.96
15	617.6	40.63
16	622.4	31.68
17	624.8	29.60
18	631.4	25.27
19	635.4	23.16
20	638.0	20.59
21	640.4	17.70
22	645.0	14.18
23	646.2	17.28
24	651.0	14.37
25	654.4	11.50
26	658.8	11.76
27	661.2	14.87
28	663.8	14.10
29	665.4	15.56
30	667.6	14.99
31	669.2	12.19
32	673.2	10.89
33	675.4	10.45
34	678.2	12.09
35	685.2	9.430
36	687.4	9.124
37	689.2	10.96
38	694.6	9.666
39	697.4	10.46
40	700.8	6.872
41	703.6	9.449
42	707.4	10.44
43	711.4	8.275
44	713.0	8.600
45	715.0	7.230
46	718.8	9.036
47	724.6	8.098
48	727.6	8.221
49	730.8	10.18
50	734.4	8.419
51	736.2	10.02
52	741.2	7.730
53	745.2	10.25
54	748.2	8.289
55	749.0	7.919
56	751.6	6.871
57	755.8	9.762
58	760.4	9.305
59	762.8	9.564
60	765.4	10.40
61	768.0	9.205
62	771.6	7.802
63	780.0	12.64

Data Points
nm	Data
480.0	52.59
481.0	61.19
482.0	73.26
483.0	94.88
484.0	109.6
485.0	125.4
486.0	155.5
487.0	195.9
488.0	215.1
489.0	257.4
490.0	321.8
491.0	365.7
492.0	413.1
493.0	474.2
494.0	534.2
495.0	597.9
496.0	676.2
497.0	739.2
498.0	791.8
499.0	866.0
500.0	938.1
501.0	964.0
502.0	980.1
503.0	 1035
504.0	 1091
505.0	 1102
506.0	 1106
507.0	 1132
508.0	 1142
509.0	 1130
510.0	 1118
511.0	 1118
512.0	 1110
513.0	 1071
514.0	 1035
515.0	 1015
516.0	 1007
517.0	999.7
518.0	976.0
519.0	950.0
520.0	925.2
521.0	925.9
522.0	906.3
523.0	886.1
524.0	869.2
525.0	860.9
526.0	844.8
527.0	820.7
528.0	814.6
529.0	775.6
530.0	757.9
531.0	756.9
532.0	732.5
533.0	711.5
534.0	715.6
535.0	710.8
536.0	665.4
537.0	640.9
538.0	631.9
539.0	622.1
540.0	606.6
541.0	598.5
542.0	578.3
543.0	572.2
544.0	528.7
545.0	518.2
546.0	515.4
547.0	501.5
548.0	449.9
549.0	462.0
550.0	453.6
551.0	412.8
552.0	405.8
553.0	403.6
554.0	380.8
555.0	371.9
556.0	360.2
557.0	342.8
558.0	327.9
559.0	330.9
560.0	301.6
561.0	303.9
562.0	301.9
563.0	272.0
564.0	274.0
565.0	267.2
566.0	248.4
567.0	245.7
568.0	236.1
569.0	204.1
570.0	211.8
571.0	211.2
572.0	199.2
573.0	195.6
574.0	194.3
575.0	182.3
576.0	164.4
577.0	166.5
578.0	178.1
579.0	163.6
580.0	162.1
581.0	149.6
582.0	138.0
583.0	139.5
584.0	123.8
585.0	129.7
586.0	122.8
587.0	113.1
588.0	116.7
589.0	112.7
590.0	110.4
591.0	99.48
592.0	100.0
593.0	91.63
594.0	91.39
595.0	89.62
596.0	90.69
597.0	75.48
598.0	76.74
599.0	77.83
600.0	81.87
601.0	74.81
602.0	64.85
603.0	69.08
604.0	69.24
605.0	62.47
606.0	57.06
607.0	64.38
608.0	56.71
609.0	49.17
610.0	46.82
611.0	41.96
612.0	49.73
613.0	55.72
614.0	48.92
615.0	43.69
616.0	44.24
617.0	42.94
618.0	43.46
619.0	42.74
620.0	44.64
621.0	41.88
622.0	42.78
623.0	35.68
624.0	39.24
625.0	35.54
626.0	31.33
627.0	29.10
628.0	28.93
629.0	29.46
630.0	29.36
631.0	26.71
632.0	33.26
633.0	25.32
634.0	23.88
635.0	24.08
636.0	23.74
637.0	27.60
638.0	20.59
639.0	28.04
640.0	24.61
641.0	22.52
642.0	26.64
643.0	20.92
644.0	16.84
645.0	14.18
646.0	17.83
647.0	20.06
648.0	20.28
649.0	20.57
650.0	21.54
651.0	14.37
652.0	20.73
653.0	18.03
654.0	14.60
655.0	18.06
656.0	16.45
657.0	17.93
658.0	12.20
659.0	14.42
660.0	20.14
661.0	15.32
662.0	17.38
663.0	19.38
664.0	17.32
665.0	16.87
666.0	19.18
667.0	18.36
668.0	17.05
669.0	14.44
670.0	14.70
671.0	17.82
672.0	16.50
673.0	11.11
674.0	13.69
675.0	11.63
676.0	14.54
677.0	13.32
678.0	14.05
679.0	12.51
680.0	14.05
681.0	13.39
682.0	15.77
683.0	14.18
684.0	14.06
685.0	12.33
686.0	11.67
687.0	11.19
688.0	14.00
689.0	12.58
690.0	12.00
691.0	13.48
692.0	14.62
693.0	17.15
694.0	13.19
695.0	12.03
696.0	11.30
697.0	10.86
698.0	12.53
699.0	13.67
700.0	9.003
701.0	6.892
702.0	13.33
703.0	9.812
704.0	15.11
705.0	16.11
706.0	12.05
707.0	11.22
708.0	15.37
709.0	13.46
710.0	11.61
711.0	13.36
712.0	11.97
713.0	8.600
714.0	12.32
715.0	7.230
716.0	8.483
717.0	10.11
718.0	13.08
719.0	10.71
720.0	10.48
721.0	9.950
722.0	11.92
723.0	14.71
724.0	8.443
725.0	9.509
726.0	13.77
727.0	11.78
728.0	12.46
729.0	12.60
730.0	14.12
731.0	11.19
732.0	12.26
733.0	14.12
734.0	9.356
735.0	10.94
736.0	10.72
737.0	10.91
738.0	12.03
739.0	15.32
740.0	12.13
741.0	8.482
742.0	10.91
743.0	12.06
744.0	12.24
745.0	11.71
746.0	15.80
747.0	9.886
748.0	8.588
749.0	7.919
750.0	11.29
751.0	10.38
752.0	8.091
753.0	9.444
754.0	10.39
755.0	10.88
756.0	11.70
757.0	13.02
758.0	10.21
759.0	11.19
760.0	9.781
761.0	16.94
762.0	13.44
763.0	10.28
764.0	12.83
765.0	12.53
766.0	12.49
767.0	12.80
768.0	9.205
769.0	11.64
770.0	10.50
771.0	10.32
772.0	8.798
773.0	8.999
774.0	17.45
775.0	10.63
776.0	14.37
777.0	8.337
778.0	13.22
779.0	8.575
780.0	12.64

Sample:	'wa-16(EM)
File name:	20.FDS
Run Date:	'19:00:14, 07/11/2024
Operator:	WXH
Comment:	'

Instrument
Model:	F-4600 FL Spectrophotometer
Serial Number:	3080-002
ROM Version:	5J24000 02

Instrument Parameters
Measurement type:	Wavelength scan
Scan mode:	Emission
Data mode:	Fluorescence
EX WL:	460.0 nm
EM  Start WL:	480.0 nm
EM  End WL:	780.0 nm
Scan speed:	1200 nm/min
Delay:	0.0 s
EX Slit:	2.5 nm
EM Slit:	2.5 nm
PMT Voltage:	600 V
Response:	Auto 
Corrected spectra:	Off
Shutter control:	On

Peak integration
Integration method:	Rectangular
Sensitivity:	1
Threshold:	1.000

Peaks
No.	Valley(nm)	Valley(Data)
1	528.2	780.0
2	547.6	474.9
3	557.6	303.5
4	574.2	177.7
5	577.8	157.6
6	581.2	142.2
7	584.6	128.6
8	588.2	104.1
9	598.0	72.49
10	604.4	58.25
11	605.8	58.36
12	609.0	50.29
13	612.8	45.69
14	614.6	41.33
15	622.6	32.91
16	625.4	27.63
17	627.0	29.01
18	630.8	22.68
19	638.0	19.91
20	642.6	18.47
21	645.0	20.77
22	649.8	12.77
23	654.6	16.70
24	656.6	12.20
25	662.8	11.99
26	668.8	10.80
27	672.8	13.33
28	677.0	11.24
29	681.0	10.80
30	686.4	7.805
31	688.2	9.659
32	692.4	11.19
33	694.2	11.49
34	696.4	10.22
35	698.4	7.828
36	700.2	10.30
37	703.6	8.804
38	706.8	9.354
39	711.2	10.23
40	713.2	9.215
41	718.4	10.27
42	722.2	7.755
43	726.0	7.011
44	727.6	8.486
45	732.2	9.558
46	736.0	7.467
47	738.6	7.215
48	740.6	9.623
49	742.0	8.729
50	746.6	8.527
51	749.0	8.148
52	751.6	8.433
53	754.6	8.919
54	758.2	7.393
55	759.8	10.45
56	764.0	7.399
57	770.0	10.98
58	772.8	9.959
59	776.0	6.181
60	779.2	8.342

Data Points
nm	Data
480.0	37.07
481.0	59.92
482.0	69.63
483.0	83.68
484.0	104.2
485.0	120.0
486.0	142.8
487.0	183.2
488.0	212.0
489.0	276.9
490.0	299.4
491.0	364.9
492.0	419.3
493.0	491.9
494.0	544.3
495.0	602.2
496.0	647.8
497.0	703.9
498.0	777.3
499.0	861.6
500.0	913.0
501.0	971.6
502.0	 1008
503.0	 1071
504.0	 1059
505.0	 1105
506.0	 1117
507.0	 1110
508.0	 1116
509.0	 1141
510.0	 1114
511.0	 1130
512.0	 1075
513.0	 1069
514.0	 1051
515.0	 1056
516.0	 1044
517.0	 1040
518.0	 1000
519.0	 1001
520.0	975.4
521.0	958.0
522.0	917.0
523.0	865.2
524.0	855.1
525.0	844.7
526.0	850.2
527.0	810.1
528.0	790.3
529.0	788.7
530.0	777.8
531.0	751.5
532.0	748.4
533.0	725.8
534.0	713.9
535.0	704.5
536.0	660.3
537.0	654.5
538.0	637.2
539.0	610.9
540.0	608.2
541.0	578.9
542.0	563.7
543.0	557.1
544.0	543.1
545.0	529.9
546.0	497.4
547.0	485.2
548.0	480.6
549.0	474.6
550.0	436.1
551.0	425.5
552.0	399.9
553.0	403.1
554.0	374.4
555.0	358.5
556.0	361.3
557.0	329.5
558.0	327.3
559.0	319.2
560.0	314.6
561.0	301.4
562.0	275.7
563.0	280.6
564.0	265.2
565.0	252.9
566.0	261.4
567.0	231.6
568.0	223.5
569.0	217.3
570.0	217.8
571.0	204.6
572.0	196.9
573.0	182.3
574.0	183.4
575.0	181.7
576.0	180.3
577.0	177.2
578.0	162.5
579.0	163.0
580.0	156.7
581.0	145.1
582.0	148.3
583.0	140.6
584.0	135.3
585.0	133.4
586.0	122.2
587.0	107.1
588.0	113.6
589.0	116.8
590.0	113.0
591.0	111.0
592.0	99.69
593.0	102.1
594.0	99.01
595.0	84.86
596.0	86.74
597.0	87.92
598.0	72.49
599.0	85.90
600.0	78.06
601.0	75.17
602.0	75.00
603.0	65.98
604.0	62.90
605.0	65.14
606.0	67.13
607.0	61.85
608.0	54.66
609.0	50.29
610.0	59.98
611.0	52.33
612.0	46.56
613.0	53.55
614.0	50.59
615.0	45.54
616.0	54.19
617.0	46.75
618.0	39.74
619.0	41.30
620.0	34.91
621.0	35.22
622.0	35.06
623.0	37.63
624.0	32.36
625.0	28.47
626.0	31.64
627.0	29.01
628.0	35.22
629.0	26.95
630.0	26.17
631.0	23.48
632.0	32.92
633.0	35.43
634.0	29.88
635.0	29.49
636.0	26.46
637.0	20.72
638.0	19.91
639.0	30.34
640.0	30.96
641.0	26.85
642.0	24.64
643.0	21.73
644.0	23.50
645.0	20.77
646.0	24.36
647.0	20.70
648.0	15.08
649.0	14.96
650.0	18.18
651.0	15.21
652.0	16.08
653.0	18.00
654.0	17.41
655.0	20.64
656.0	20.06
657.0	16.89
658.0	16.07
659.0	18.36
660.0	16.74
661.0	14.78
662.0	16.76
663.0	14.58
664.0	17.02
665.0	15.73
666.0	15.16
667.0	13.45
668.0	12.72
669.0	13.31
670.0	17.14
671.0	19.21
672.0	20.00
673.0	16.21
674.0	14.80
675.0	17.64
676.0	14.29
677.0	11.24
678.0	14.14
679.0	13.08
680.0	11.30
681.0	10.80
682.0	12.83
683.0	15.14
684.0	12.66
685.0	12.15
686.0	11.13
687.0	12.49
688.0	11.55
689.0	9.904
690.0	10.44
691.0	14.27
692.0	12.84
693.0	15.23
694.0	13.25
695.0	12.55
696.0	11.42
697.0	12.12
698.0	8.369
699.0	10.82
700.0	12.45
701.0	13.54
702.0	12.37
703.0	11.71
704.0	10.93
705.0	14.19
706.0	13.03
707.0	10.98
708.0	14.53
709.0	9.881
710.0	10.44
711.0	12.46
712.0	11.46
713.0	9.492
714.0	11.98
715.0	9.200
716.0	12.76
717.0	11.22
718.0	10.77
719.0	16.15
720.0	14.30
721.0	14.93
722.0	7.980
723.0	8.575
724.0	11.30
725.0	10.04
726.0	7.011
727.0	11.12
728.0	10.25
729.0	10.19
730.0	12.27
731.0	15.24
732.0	10.01
733.0	10.66
734.0	11.83
735.0	9.888
736.0	7.467
737.0	10.86
738.0	12.51
739.0	11.42
740.0	11.56
741.0	10.63
742.0	8.729
743.0	10.37
744.0	11.12
745.0	11.12
746.0	11.15
747.0	11.42
748.0	10.18
749.0	8.148
750.0	12.35
751.0	9.594
752.0	17.23
753.0	14.29
754.0	12.64
755.0	10.56
756.0	10.55
757.0	12.71
758.0	8.939
759.0	12.27
760.0	11.45
761.0	12.38
762.0	12.70
763.0	10.70
764.0	7.399
765.0	10.53
766.0	11.93
767.0	14.16
768.0	14.52
769.0	14.55
770.0	10.98
771.0	13.85
772.0	10.07
773.0	15.30
774.0	9.318
775.0	8.005
776.0	6.181
777.0	10.04
778.0	11.82
779.0	8.706
780.0	9.792

Sample:	'wa-17(EM)
File name:	20.FDS
Run Date:	'19:00:44, 07/11/2024
Operator:	WXH
Comment:	'

Instrument
Model:	F-4600 FL Spectrophotometer
Serial Number:	3080-002
ROM Version:	5J24000 02

Instrument Parameters
Measurement type:	Wavelength scan
Scan mode:	Emission
Data mode:	Fluorescence
EX WL:	460.0 nm
EM  Start WL:	480.0 nm
EM  End WL:	780.0 nm
Scan speed:	1200 nm/min
Delay:	0.0 s
EX Slit:	2.5 nm
EM Slit:	2.5 nm
PMT Voltage:	600 V
Response:	Auto 
Corrected spectra:	Off
Shutter control:	On

Peak integration
Integration method:	Rectangular
Sensitivity:	1
Threshold:	1.000

Peaks
No.	Valley(nm)	Valley(Data)
1	507.2	 1090
2	509.4	 1102
3	512.2	 1095
4	531.6	725.8
5	538.8	618.7
6	551.0	409.8
7	556.2	367.2
8	569.8	204.0
9	574.0	175.7
10	577.4	160.6
11	579.6	148.9
12	581.8	134.5
13	588.4	101.8
14	594.2	84.19
15	601.0	66.84
16	605.2	56.36
17	609.8	51.16
18	617.6	34.57
19	620.8	35.10
20	622.4	34.94
21	625.8	28.43
22	628.8	25.93
23	632.8	23.33
24	635.4	20.91
25	639.0	21.53
26	641.0	21.37
27	643.4	18.23
28	651.8	13.34
29	656.2	10.80
30	659.4	12.02
31	660.8	13.69
32	667.2	11.37
33	671.6	10.09
34	674.8	9.080
35	679.6	10.57
36	686.2	11.11
37	689.4	10.79
38	694.4	8.642
39	699.2	7.476
40	702.8	10.61
41	706.4	7.888
42	710.4	7.231
43	713.6	10.21
44	715.4	10.07
45	718.4	9.514
46	720.8	9.266
47	722.8	8.145
48	725.0	8.351
49	728.8	7.234
50	735.0	9.155
51	737.2	9.866
52	739.8	9.021
53	742.8	10.38
54	745.2	7.776
55	748.0	11.10
56	752.4	8.026
57	757.0	5.744
58	760.0	9.690
59	764.8	7.573
60	770.4	9.737
61	773.2	9.273
62	775.4	9.830
63	778.0	9.554

Data Points
nm	Data
480.0	46.86
481.0	56.33
482.0	74.30
483.0	86.71
484.0	98.21
485.0	125.8
486.0	166.8
487.0	191.1
488.0	218.9
489.0	262.5
490.0	301.4
491.0	355.9
492.0	397.0
493.0	503.0
494.0	547.8
495.0	598.6
496.0	646.5
497.0	769.1
498.0	788.0
499.0	843.7
500.0	936.2
501.0	989.2
502.0	 1007
503.0	 1078
504.0	 1112
505.0	 1142
506.0	 1124
507.0	 1107
508.0	 1133
509.0	 1131
510.0	 1125
511.0	 1097
512.0	 1107
513.0	 1140
514.0	 1089
515.0	 1037
516.0	 1021
517.0	 1006
518.0	998.0
519.0	937.9
520.0	921.4
521.0	943.0
522.0	915.3
523.0	887.5
524.0	893.9
525.0	868.0
526.0	838.3
527.0	815.6
528.0	800.9
529.0	774.3
530.0	773.6
531.0	751.4
532.0	730.4
533.0	720.4
534.0	727.8
535.0	706.9
536.0	681.3
537.0	635.2
538.0	629.3
539.0	636.9
540.0	633.3
541.0	599.7
542.0	583.1
543.0	550.5
544.0	529.0
545.0	493.4
546.0	493.1
547.0	475.7
548.0	484.4
549.0	444.3
550.0	456.1
551.0	409.8
552.0	415.3
553.0	410.6
554.0	377.6
555.0	380.6
556.0	381.5
557.0	342.0
558.0	314.8
559.0	323.0
560.0	303.3
561.0	297.9
562.0	289.3
563.0	275.3
564.0	269.0
565.0	276.0
566.0	257.7
567.0	244.0
568.0	230.4
569.0	217.5
570.0	212.8
571.0	216.7
572.0	204.4
573.0	196.9
574.0	175.7
575.0	192.1
576.0	169.6
577.0	167.1
578.0	165.3
579.0	157.7
580.0	153.4
581.0	147.5
582.0	137.1
583.0	152.6
584.0	133.4
585.0	130.7
586.0	118.6
587.0	112.1
588.0	114.6
589.0	107.4
590.0	108.7
591.0	103.6
592.0	98.92
593.0	89.02
594.0	89.46
595.0	93.56
596.0	82.30
597.0	83.69
598.0	78.17
599.0	72.97
600.0	72.12
601.0	66.84
602.0	75.12
603.0	69.95
604.0	68.64
605.0	61.12
606.0	57.28
607.0	62.09
608.0	59.21
609.0	60.46
610.0	53.67
611.0	56.57
612.0	54.48
613.0	53.18
614.0	44.07
615.0	43.04
616.0	43.39
617.0	42.95
618.0	34.93
619.0	41.51
620.0	37.22
621.0	37.61
622.0	39.62
623.0	43.12
624.0	41.96
625.0	36.29
626.0	32.29
627.0	30.70
628.0	33.74
629.0	26.45
630.0	31.89
631.0	27.15
632.0	27.11
633.0	28.67
634.0	28.08
635.0	24.32
636.0	29.88
637.0	29.04
638.0	23.98
639.0	21.53
640.0	24.43
641.0	21.37
642.0	25.39
643.0	20.90
644.0	25.75
645.0	22.38
646.0	20.52
647.0	21.03
648.0	19.79
649.0	18.77
650.0	16.35
651.0	18.34
652.0	17.93
653.0	13.82
654.0	16.18
655.0	13.27
656.0	12.45
657.0	15.51
658.0	14.01
659.0	13.43
660.0	16.72
661.0	15.71
662.0	17.27
663.0	17.09
664.0	14.33
665.0	16.14
666.0	16.26
667.0	12.20
668.0	14.56
669.0	17.67
670.0	15.45
671.0	11.52
672.0	13.85
673.0	14.94
674.0	10.95
675.0	12.98
676.0	16.72
677.0	13.06
678.0	15.38
679.0	10.90
680.0	12.85
681.0	12.28
682.0	11.80
683.0	16.47
684.0	13.50
685.0	10.48
686.0	11.53
687.0	13.51
688.0	18.69
689.0	15.04
690.0	16.18
691.0	15.03
692.0	13.75
693.0	13.77
694.0	13.44
695.0	8.745
696.0	14.41
697.0	10.74
698.0	11.23
699.0	9.025
700.0	11.24
701.0	14.61
702.0	12.14
703.0	10.91
704.0	10.77
705.0	11.98
706.0	10.97
707.0	12.01
708.0	14.12
709.0	9.493
710.0	8.921
711.0	10.57
712.0	11.58
713.0	12.45
714.0	13.72
715.0	10.10
716.0	10.56
717.0	11.12
718.0	10.66
719.0	14.19
720.0	12.36
721.0	10.17
722.0	12.32
723.0	10.16
724.0	14.15
725.0	8.351
726.0	13.08
727.0	11.34
728.0	8.761
729.0	10.07
730.0	11.00
731.0	11.00
732.0	10.47
733.0	15.19
734.0	10.47
735.0	9.155
736.0	11.68
737.0	10.40
738.0	13.54
739.0	11.34
740.0	9.330
741.0	12.78
742.0	11.77
743.0	11.90
744.0	11.28
745.0	8.227
746.0	12.80
747.0	12.95
748.0	11.10
749.0	13.62
750.0	11.66
751.0	11.86
752.0	10.49
753.0	8.286
754.0	10.40
755.0	11.79
756.0	10.85
757.0	5.744
758.0	11.26
759.0	11.85
760.0	9.690
761.0	11.94
762.0	13.78
763.0	13.54
764.0	10.06
765.0	8.486
766.0	8.798
767.0	12.00
768.0	12.46
769.0	10.25
770.0	11.72
771.0	10.71
772.0	11.48
773.0	9.716
774.0	12.24
775.0	10.50
776.0	10.01
777.0	12.97
778.0	9.554
779.0	12.72
780.0	12.08

Sample:	'wa-18(EM)
File name:	20.FDS
Run Date:	'19:01:14, 07/11/2024
Operator:	WXH
Comment:	'

Instrument
Model:	F-4600 FL Spectrophotometer
Serial Number:	3080-002
ROM Version:	5J24000 02

Instrument Parameters
Measurement type:	Wavelength scan
Scan mode:	Emission
Data mode:	Fluorescence
EX WL:	460.0 nm
EM  Start WL:	480.0 nm
EM  End WL:	780.0 nm
Scan speed:	1200 nm/min
Delay:	0.0 s
EX Slit:	2.5 nm
EM Slit:	2.5 nm
PMT Voltage:	600 V
Response:	Auto 
Corrected spectra:	Off
Shutter control:	On

Peak integration
Integration method:	Rectangular
Sensitivity:	1
Threshold:	1.000

Peaks
No.	Valley(nm)	Valley(Data)
1	506.6	 1087
2	507.8	 1103
3	509.8	 1115
4	514.0	 1036
5	517.2	981.3
6	534.0	685.4
7	547.4	447.0
8	565.2	220.1
9	573.4	178.6
10	579.6	152.8
11	582.8	131.0
12	592.0	95.98
13	597.8	79.06
14	601.4	68.52
15	607.6	55.09
16	610.4	50.11
17	611.8	47.46
18	618.2	37.19
19	622.0	35.88
20	624.8	32.81
21	633.0	21.74
22	635.2	24.18
23	640.8	15.80
24	647.4	19.30
25	650.6	15.45
26	655.8	15.55
27	657.4	11.96
28	662.8	10.04
29	667.8	12.13
30	671.2	11.44
31	675.0	10.46
32	678.6	11.81
33	680.8	10.33
34	683.8	11.75
35	687.0	8.578
36	690.6	8.554
37	692.6	8.340
38	695.4	8.493
39	698.0	9.665
40	699.4	9.368
41	703.4	9.042
42	706.4	9.260
43	710.6	11.04
44	714.2	8.210
45	718.2	10.71
46	719.8	11.26
47	722.4	8.500
48	727.0	9.507
49	732.4	11.10
50	737.6	6.982
51	741.2	9.669
52	745.0	8.043
53	746.4	9.446
54	749.6	10.16
55	752.0	9.087
56	755.4	8.644
57	759.2	6.731
58	762.2	5.317
59	764.4	9.165
60	767.8	7.922
61	772.2	7.224
62	773.8	8.122

Data Points
nm	Data
480.0	57.40
481.0	65.16
482.0	71.94
483.0	92.51
484.0	109.5
485.0	122.9
486.0	156.0
487.0	189.4
488.0	211.1
489.0	265.6
490.0	297.3
491.0	346.0
492.0	409.9
493.0	473.5
494.0	546.3
495.0	603.7
496.0	679.0
497.0	735.9
498.0	816.3
499.0	874.8
500.0	902.0
501.0	956.5
502.0	 1019
503.0	 1064
504.0	 1107
505.0	 1115
506.0	 1120
507.0	 1136
508.0	 1115
509.0	 1141
510.0	 1130
511.0	 1137
512.0	 1124
513.0	 1136
514.0	 1036
515.0	 1058
516.0	 1055
517.0	991.6
518.0	989.9
519.0	997.8
520.0	948.6
521.0	942.0
522.0	898.4
523.0	897.2
524.0	862.4
525.0	854.5
526.0	834.8
527.0	820.7
528.0	810.9
529.0	790.0
530.0	775.0
531.0	751.1
532.0	717.9
533.0	706.3
534.0	685.4
535.0	725.4
536.0	669.0
537.0	667.1
538.0	629.9
539.0	630.3
540.0	620.3
541.0	588.5
542.0	563.3
543.0	544.8
544.0	535.6
545.0	520.7
546.0	502.8
547.0	465.1
548.0	465.3
549.0	468.8
550.0	442.0
551.0	431.8
552.0	429.2
553.0	396.3
554.0	372.9
555.0	374.4
556.0	352.1
557.0	354.9
558.0	327.6
559.0	330.3
560.0	296.8
561.0	299.7
562.0	294.5
563.0	274.5
564.0	256.3
565.0	242.7
566.0	244.9
567.0	242.7
568.0	232.4
569.0	210.8
570.0	219.8
571.0	216.5
572.0	201.0
573.0	180.4
574.0	184.0
575.0	181.7
576.0	170.2
577.0	162.4
578.0	161.4
579.0	160.4
580.0	155.7
581.0	162.8
582.0	144.9
583.0	138.1
584.0	140.9
585.0	128.7
586.0	118.6
587.0	123.2
588.0	109.6
589.0	107.6
590.0	106.4
591.0	104.8
592.0	95.98
593.0	104.9
594.0	99.80
595.0	87.17
596.0	88.04
597.0	85.66
598.0	83.67
599.0	81.89
600.0	81.19
601.0	68.75
602.0	70.14
603.0	72.58
604.0	73.10
605.0	63.15
606.0	61.30
607.0	60.58
608.0	58.94
609.0	56.67
610.0	53.53
611.0	55.66
612.0	50.79
613.0	55.18
614.0	50.87
615.0	46.24
616.0	42.81
617.0	42.11
618.0	38.53
619.0	38.20
620.0	47.54
621.0	38.13
622.0	35.88
623.0	46.41
624.0	33.97
625.0	33.23
626.0	37.49
627.0	36.61
628.0	32.03
629.0	31.02
630.0	30.01
631.0	28.31
632.0	33.64
633.0	21.74
634.0	26.19
635.0	25.06
636.0	26.99
637.0	20.50
638.0	20.89
639.0	25.57
640.0	21.03
641.0	21.76
642.0	22.25
643.0	24.94
644.0	27.82
645.0	23.87
646.0	21.28
647.0	19.73
648.0	24.43
649.0	20.04
650.0	17.89
651.0	16.36
652.0	20.09
653.0	22.82
654.0	19.78
655.0	16.97
656.0	21.69
657.0	18.52
658.0	16.61
659.0	16.19
660.0	20.87
661.0	16.81
662.0	16.31
663.0	15.21
664.0	17.24
665.0	15.17
666.0	12.44
667.0	12.30
668.0	12.41
669.0	12.80
670.0	13.43
671.0	12.47
672.0	15.24
673.0	13.06
674.0	13.32
675.0	10.46
676.0	13.13
677.0	15.25
678.0	15.70
679.0	12.80
680.0	14.23
681.0	11.32
682.0	13.85
683.0	15.01
684.0	13.75
685.0	11.38
686.0	12.73
687.0	8.578
688.0	15.50
689.0	12.44
690.0	11.07
691.0	10.46
692.0	10.18
693.0	11.44
694.0	9.890
695.0	11.64
696.0	11.66
697.0	14.81
698.0	9.665
699.0	10.62
700.0	11.24
701.0	10.13
702.0	12.70
703.0	12.90
704.0	15.20
705.0	14.17
706.0	9.478
707.0	11.43
708.0	11.57
709.0	9.094
710.0	14.50
711.0	16.27
712.0	13.80
713.0	11.20
714.0	9.571
715.0	12.26
716.0	15.40
717.0	16.52
718.0	13.31
719.0	13.94
720.0	11.67
721.0	13.77
722.0	10.80
723.0	10.10
724.0	16.34
725.0	11.52
726.0	12.08
727.0	9.507
728.0	11.14
729.0	12.64
730.0	12.25
731.0	13.04
732.0	12.45
733.0	13.56
734.0	12.13
735.0	12.28
736.0	9.605
737.0	10.58
738.0	8.118
739.0	13.26
740.0	11.00
741.0	9.675
742.0	12.81
743.0	9.377
744.0	8.685
745.0	8.043
746.0	10.57
747.0	10.38
748.0	10.83
749.0	13.03
750.0	12.62
751.0	12.42
752.0	9.087
753.0	14.82
754.0	8.880
755.0	11.15
756.0	11.32
757.0	14.39
758.0	9.325
759.0	8.999
760.0	9.227
761.0	9.567
762.0	6.700
763.0	8.759
764.0	12.48
765.0	11.53
766.0	13.11
767.0	12.27
768.0	8.552
769.0	9.365
770.0	9.328
771.0	7.955
772.0	10.05
773.0	13.36
774.0	9.841
775.0	9.918
776.0	7.233
777.0	9.528
778.0	10.83
779.0	13.41
780.0	11.94

Sample:	'wa-19(EM)
File name:	20.FDS
Run Date:	'19:01:44, 07/11/2024
Operator:	WXH
Comment:	'

Instrument
Model:	F-4600 FL Spectrophotometer
Serial Number:	3080-002
ROM Version:	5J24000 02

Instrument Parameters
Measurement type:	Wavelength scan
Scan mode:	Emission
Data mode:	Fluorescence
EX WL:	460.0 nm
EM  Start WL:	480.0 nm
EM  End WL:	780.0 nm
Scan speed:	1200 nm/min
Delay:	0.0 s
EX Slit:	2.5 nm
EM Slit:	2.5 nm
PMT Voltage:	600 V
Response:	Auto 
Corrected spectra:	Off
Shutter control:	On

Peak integration
Integration method:	Rectangular
Sensitivity:	1
Threshold:	1.000

Peaks
No.	Valley(nm)	Valley(Data)
1	504.8	 1069
2	508.6	 1089
3	518.2	953.7
4	525.4	825.1
5	540.2	569.9
6	545.6	503.1
7	561.6	272.9
8	563.8	255.8
9	571.0	198.5
10	579.6	147.6
11	582.4	132.8
12	589.2	96.90
13	591.0	96.47
14	594.4	87.30
15	598.0	74.71
16	600.6	69.43
17	604.6	57.28
18	607.8	50.77
19	610.8	48.61
20	612.8	48.88
21	618.4	37.03
22	621.6	35.38
23	624.2	32.98
24	627.6	30.00
25	631.8	26.50
26	638.8	21.70
27	641.6	17.73
28	645.2	11.11
29	648.0	15.45
30	650.8	17.00
31	655.8	12.49
32	659.0	14.56
33	661.2	13.62
34	668.4	10.78
35	670.0	11.00
36	671.6	11.44
37	673.6	13.87
38	676.2	11.12
39	679.0	7.994
40	681.6	8.592
41	684.6	8.259
42	687.6	9.157
43	694.6	8.156
44	697.4	10.33
45	705.0	9.157
46	708.0	7.133
47	711.2	8.629
48	714.2	9.652
49	718.0	9.522
50	721.0	13.36
51	722.8	10.12
52	726.4	7.336
53	728.4	8.789
54	734.2	8.813
55	738.6	6.674
56	743.2	8.654
57	749.2	9.073
58	753.0	7.165
59	757.0	9.189
60	760.8	8.599
61	762.6	10.40
62	766.2	5.426
63	767.6	7.662
64	769.8	6.678
65	771.6	7.578
66	775.8	8.832
67	780.0	11.41

Data Points
nm	Data
480.0	50.25
481.0	58.08
482.0	76.35
483.0	83.25
484.0	105.5
485.0	125.8
486.0	165.7
487.0	185.1
488.0	231.4
489.0	271.7
490.0	322.8
491.0	356.0
492.0	405.2
493.0	474.4
494.0	540.6
495.0	617.0
496.0	667.2
497.0	752.4
498.0	780.6
499.0	876.8
500.0	930.9
501.0	974.3
502.0	991.8
503.0	 1045
504.0	 1115
505.0	 1080
506.0	 1100
507.0	 1128
508.0	 1140
509.0	 1098
510.0	 1129
511.0	 1142
512.0	 1118
513.0	 1089
514.0	 1059
515.0	 1044
516.0	994.4
517.0	 1002
518.0	965.5
519.0	977.2
520.0	971.2
521.0	937.2
522.0	904.0
523.0	875.6
524.0	865.9
525.0	830.9
526.0	838.0
527.0	863.7
528.0	812.5
529.0	762.7
530.0	777.8
531.0	765.7
532.0	723.7
533.0	733.2
534.0	712.7
535.0	697.9
536.0	666.4
537.0	666.6
538.0	627.4
539.0	617.6
540.0	573.0
541.0	589.1
542.0	568.6
543.0	563.0
544.0	544.4
545.0	521.2
546.0	526.7
547.0	484.4
548.0	495.4
549.0	470.3
550.0	445.4
551.0	435.8
552.0	416.8
553.0	406.7
554.0	389.5
555.0	389.3
556.0	336.0
557.0	343.0
558.0	315.7
559.0	309.0
560.0	299.2
561.0	281.7
562.0	283.8
563.0	290.7
564.0	260.8
565.0	268.7
566.0	242.4
567.0	225.3
568.0	226.5
569.0	225.1
570.0	210.9
571.0	198.5
572.0	212.7
573.0	189.1
574.0	185.1
575.0	179.5
576.0	170.9
577.0	160.9
578.0	163.2
579.0	149.8
580.0	154.0
581.0	156.4
582.0	141.7
583.0	145.2
584.0	129.4
585.0	136.2
586.0	128.9
587.0	130.8
588.0	116.2
589.0	103.2
590.0	104.1
591.0	96.47
592.0	102.9
593.0	108.9
594.0	91.88
595.0	95.02
596.0	98.16
597.0	84.43
598.0	74.71
599.0	83.15
600.0	69.68
601.0	70.08
602.0	71.74
603.0	66.09
604.0	63.26
605.0	69.74
606.0	56.35
607.0	54.39
608.0	52.54
609.0	60.70
610.0	57.50
611.0	54.26
612.0	52.73
613.0	54.55
614.0	55.29
615.0	45.82
616.0	42.99
617.0	39.86
618.0	40.50
619.0	45.45
620.0	42.57
621.0	44.57
622.0	35.94
623.0	39.11
624.0	36.38
625.0	37.45
626.0	34.89
627.0	32.90
628.0	30.53
629.0	33.86
630.0	32.38
631.0	28.22
632.0	26.75
633.0	32.70
634.0	32.35
635.0	26.61
636.0	26.32
637.0	27.90
638.0	26.98
639.0	22.54
640.0	26.79
641.0	21.74
642.0	20.57
643.0	19.26
644.0	17.75
645.0	13.94
646.0	17.58
647.0	22.38
648.0	15.45
649.0	17.63
650.0	20.90
651.0	17.83
652.0	26.39
653.0	16.57
654.0	17.34
655.0	16.64
656.0	18.30
657.0	18.20
658.0	17.78
659.0	14.56
660.0	22.86
661.0	14.58
662.0	17.05
663.0	17.60
664.0	20.06
665.0	18.25
666.0	15.34
667.0	16.56
668.0	11.11
669.0	11.07
670.0	11.00
671.0	13.78
672.0	12.53
673.0	16.70
674.0	14.68
675.0	12.60
676.0	12.88
677.0	12.22
678.0	13.85
679.0	7.994
680.0	9.999
681.0	12.03
682.0	12.07
683.0	9.937
684.0	11.43
685.0	10.86
686.0	10.74
687.0	13.87
688.0	10.74
689.0	15.95
690.0	13.61
691.0	13.26
692.0	13.57
693.0	13.73
694.0	12.60
695.0	12.15
696.0	10.09
697.0	13.57
698.0	11.13
699.0	10.65
700.0	15.69
701.0	15.50
702.0	13.76
703.0	14.38
704.0	12.10
705.0	9.157
706.0	12.94
707.0	13.58
708.0	7.133
709.0	11.20
710.0	9.735
711.0	11.12
712.0	11.52
713.0	11.28
714.0	11.38
715.0	14.92
716.0	10.22
717.0	10.48
718.0	9.522
719.0	11.52
720.0	21.47
721.0	13.36
722.0	15.62
723.0	11.46
724.0	12.45
725.0	8.556
726.0	8.087
727.0	9.666
728.0	10.94
729.0	9.350
730.0	11.34
731.0	16.76
732.0	13.06
733.0	14.53
734.0	10.10
735.0	13.75
736.0	13.83
737.0	10.63
738.0	7.934
739.0	8.807
740.0	16.06
741.0	15.15
742.0	12.30
743.0	8.660
744.0	10.83
745.0	11.16
746.0	15.01
747.0	14.26
748.0	12.26
749.0	9.329
750.0	11.91
751.0	11.50
752.0	11.22
753.0	7.165
754.0	8.992
755.0	12.34
756.0	13.98
757.0	9.189
758.0	11.63
759.0	11.79
760.0	10.89
761.0	9.166
762.0	11.79
763.0	13.46
764.0	12.92
765.0	10.97
766.0	7.808
767.0	11.94
768.0	7.877
769.0	9.294
770.0	6.692
771.0	10.54
772.0	9.131
773.0	12.27
774.0	14.22
775.0	9.942
776.0	10.94
777.0	10.45
778.0	11.70
779.0	10.41
780.0	11.41

Sample:	'wa-20(EM)
File name:	20.FDS
Run Date:	'19:02:14, 07/11/2024
Operator:	WXH
Comment:	'

Instrument
Model:	F-4600 FL Spectrophotometer
Serial Number:	3080-002
ROM Version:	5J24000 02

Instrument Parameters
Measurement type:	Wavelength scan
Scan mode:	Emission
Data mode:	Fluorescence
EX WL:	460.0 nm
EM  Start WL:	480.0 nm
EM  End WL:	780.0 nm
Scan speed:	1200 nm/min
Delay:	0.0 s
EX Slit:	2.5 nm
EM Slit:	2.5 nm
PMT Voltage:	600 V
Response:	Auto 
Corrected spectra:	Off
Shutter control:	On

Peak integration
Integration method:	Rectangular
Sensitivity:	1
Threshold:	1.000

Peaks
No.	Valley(nm)	Valley(Data)
1	508.4	 1102
2	510.2	 1103
3	514.0	 1062
4	542.8	538.0
5	561.0	293.3
6	569.2	205.0
7	575.0	167.4
8	587.6	108.4
9	592.6	91.92
10	599.0	71.77
11	605.2	57.26
12	609.2	49.89
13	613.0	48.11
14	614.8	40.88
15	619.4	39.30
16	621.2	36.98
17	625.8	31.05
18	629.2	33.89
19	631.6	23.87
20	633.8	25.53
21	640.6	17.56
22	645.2	18.39
23	648.6	18.73
24	652.6	14.05
25	657.6	13.31
26	661.0	12.55
27	662.6	9.477
28	668.8	11.82
29	670.6	8.351
30	676.0	9.258
31	678.6	11.16
32	682.2	9.067
33	686.2	7.622
34	688.2	6.751
35	694.2	10.44
36	696.6	8.639
37	699.2	12.35
38	702.2	7.808
39	707.4	8.761
40	711.0	8.203
41	714.2	8.483
42	716.8	6.914
43	719.8	6.566
44	722.0	6.495
45	725.6	7.564
46	730.0	8.538
47	732.2	9.577
48	735.6	8.587
49	737.8	9.653
50	741.2	6.669
51	745.6	6.214
52	752.6	8.068
53	755.4	10.23
54	759.0	9.351
55	760.6	7.791
56	763.0	8.947
57	763.8	8.340
58	766.6	7.254
59	771.8	11.04
60	775.4	7.808
61	780.0	9.416

Data Points
nm	Data
480.0	56.85
481.0	53.72
482.0	78.25
483.0	96.61
484.0	107.4
485.0	124.1
486.0	166.3
487.0	196.8
488.0	219.8
489.0	257.1
490.0	321.5
491.0	350.4
492.0	409.3
493.0	476.0
494.0	538.4
495.0	613.6
496.0	659.3
497.0	696.1
498.0	806.9
499.0	852.3
500.0	948.1
501.0	968.8
502.0	 1003
503.0	 1066
504.0	 1072
505.0	 1133
506.0	 1141
507.0	 1123
508.0	 1133
509.0	 1125
510.0	 1135
511.0	 1135
512.0	 1121
513.0	 1095
514.0	 1062
515.0	 1058
516.0	 1044
517.0	 1011
518.0	 1001
519.0	989.8
520.0	960.3
521.0	931.3
522.0	916.9
523.0	891.6
524.0	898.1
525.0	862.0
526.0	831.8
527.0	824.3
528.0	785.4
529.0	801.3
530.0	773.6
531.0	774.7
532.0	746.6
533.0	718.0
534.0	713.3
535.0	703.6
536.0	689.1
537.0	655.7
538.0	642.6
539.0	612.6
540.0	594.5
541.0	585.2
542.0	558.4
543.0	544.9
544.0	537.6
545.0	531.0
546.0	514.1
547.0	482.5
548.0	477.7
549.0	443.3
550.0	441.0
551.0	445.8
552.0	431.0
553.0	388.1
554.0	374.3
555.0	367.3
556.0	358.7
557.0	339.0
558.0	335.5
559.0	331.3
560.0	302.8
561.0	293.3
562.0	297.2
563.0	288.7
564.0	266.4
565.0	247.5
566.0	247.6
567.0	235.8
568.0	226.9
569.0	206.3
570.0	219.8
571.0	220.5
572.0	191.0
573.0	184.8
574.0	185.2
575.0	167.4
576.0	181.5
577.0	162.9
578.0	160.9
579.0	149.8
580.0	143.6
581.0	155.5
582.0	142.9
583.0	134.5
584.0	147.6
585.0	133.2
586.0	129.2
587.0	122.5
588.0	122.5
589.0	114.4
590.0	114.3
591.0	97.95
592.0	93.54
593.0	94.42
594.0	92.61
595.0	90.22
596.0	83.16
597.0	86.41
598.0	77.80
599.0	71.77
600.0	77.28
601.0	81.41
602.0	73.60
603.0	67.99
604.0	69.66
605.0	62.03
606.0	61.11
607.0	68.64
608.0	58.95
609.0	54.39
610.0	55.23
611.0	52.33
612.0	53.40
613.0	48.11
614.0	51.49
615.0	41.92
616.0	44.05
617.0	48.13
618.0	39.61
619.0	39.82
620.0	42.54
621.0	39.98
622.0	45.19
623.0	43.95
624.0	37.16
625.0	36.40
626.0	37.21
627.0	38.01
628.0	36.07
629.0	34.07
630.0	37.67
631.0	28.19
632.0	27.21
633.0	28.63
634.0	29.68
635.0	28.06
636.0	27.09
637.0	28.90
638.0	23.03
639.0	17.98
640.0	21.54
641.0	20.95
642.0	27.68
643.0	25.23
644.0	17.86
645.0	17.91
646.0	19.27
647.0	22.53
648.0	23.13
649.0	20.04
650.0	22.26
651.0	24.12
652.0	17.61
653.0	15.79
654.0	19.72
655.0	21.47
656.0	17.99
657.0	18.11
658.0	15.72
659.0	15.25
660.0	17.07
661.0	12.55
662.0	13.52
663.0	12.54
664.0	18.57
665.0	16.79
666.0	15.34
667.0	16.56
668.0	12.69
669.0	12.75
670.0	10.94
671.0	10.41
672.0	10.04
673.0	10.82
674.0	15.16
675.0	11.27
676.0	9.258
677.0	15.01
678.0	13.13
679.0	13.64
680.0	17.78
681.0	13.19
682.0	11.16
683.0	12.49
684.0	9.613
685.0	8.020
686.0	9.295
687.0	11.99
688.0	9.446
689.0	10.07
690.0	10.68
691.0	16.37
692.0	14.52
693.0	12.26
694.0	12.10
695.0	14.15
696.0	8.956
697.0	10.57
698.0	13.34
699.0	14.47
700.0	15.82
701.0	12.56
702.0	8.847
703.0	9.157
704.0	13.68
705.0	11.97
706.0	10.19
707.0	10.58
708.0	10.68
709.0	12.77
710.0	11.69
711.0	8.203
712.0	10.87
713.0	11.96
714.0	9.744
715.0	11.77
716.0	10.07
717.0	9.436
718.0	10.42
719.0	9.761
720.0	9.208
721.0	9.015
722.0	6.495
723.0	10.09
724.0	10.64
725.0	13.51
726.0	8.781
727.0	11.42
728.0	9.778
729.0	13.30
730.0	8.538
731.0	12.86
732.0	9.842
733.0	13.65
734.0	12.93
735.0	11.41
736.0	11.77
737.0	11.79
738.0	11.09
739.0	11.90
740.0	8.960
741.0	7.553
742.0	9.051
743.0	9.866
744.0	6.931
745.0	7.722
746.0	8.750
747.0	10.31
748.0	9.553
749.0	14.62
750.0	12.13
751.0	9.369
752.0	11.13
753.0	12.59
754.0	11.32
755.0	11.37
756.0	10.67
757.0	14.95
758.0	13.98
759.0	9.351
760.0	10.93
761.0	10.36
762.0	10.48
763.0	8.947
764.0	9.097
765.0	11.08
766.0	10.40
767.0	9.782
768.0	14.80
769.0	12.19
770.0	12.13
771.0	12.07
772.0	12.12
773.0	10.36
774.0	12.62
775.0	7.818
776.0	9.937
777.0	15.08
778.0	12.78
779.0	9.041
780.0	9.416

