Sample:	'wa-1(EM)
File name:	60.FDS
Run Date:	'18:12:11, 07/11/2024
Operator:	WXH
Comment:	'

Instrument
Model:	F-4600 FL Spectrophotometer
Serial Number:	3080-002
ROM Version:	5J24000 02

Instrument Parameters
Measurement type:	Wavelength scan
Scan mode:	Emission
Data mode:	Fluorescence
EX WL:	460.0 nm
EM  Start WL:	480.0 nm
EM  End WL:	780.0 nm
Scan speed:	1200 nm/min
Delay:	0.0 s
EX Slit:	2.5 nm
EM Slit:	2.5 nm
PMT Voltage:	600 V
Response:	Auto 
Corrected spectra:	Off
Shutter control:	On

Peak integration
Integration method:	Rectangular
Sensitivity:	1
Threshold:	1.000

Peaks
No.	Valley(nm)	Valley(Data)
1	510.4	309.0
2	514.4	315.6
3	518.2	305.3
4	521.2	272.2
5	523.8	276.7
6	526.8	251.3
7	531.4	232.9
8	533.6	219.5
9	536.6	207.6
10	543.8	168.2
11	552.8	117.9
12	554.6	119.5
13	559.0	100.8
14	565.8	76.56
15	571.2	59.10
16	577.6	56.77
17	580.2	50.54
18	582.4	44.85
19	585.2	39.07
20	590.0	36.04
21	593.2	32.81
22	595.6	29.62
23	598.6	29.94
24	604.8	19.99
25	607.2	24.14
26	613.0	17.21
27	617.4	17.69
28	620.0	15.90
29	623.0	14.79
30	629.0	12.94
31	632.4	10.26
32	636.4	12.78
33	644.0	9.865
34	647.6	9.545
35	649.2	10.12
36	654.2	12.21
37	656.2	9.637
38	660.2	8.671
39	664.4	8.185
40	668.8	4.963
41	671.2	8.720
42	674.0	7.190
43	676.4	9.755
44	678.0	8.662
45	683.6	8.067
46	686.0	7.909
47	689.2	7.154
48	691.8	7.069
49	694.8	7.498
50	696.2	6.146
51	703.0	5.612
52	706.4	9.212
53	708.0	8.331
54	709.8	8.383
55	712.2	7.195
56	716.8	6.907
57	720.0	7.269
58	723.8	7.745
59	726.0	6.814
60	728.4	7.464
61	732.2	6.484
62	735.0	8.271
63	738.2	7.157
64	741.0	9.310
65	742.8	7.072
66	744.6	5.779
67	748.0	6.815
68	750.6	9.494
69	754.4	6.658
70	757.8	7.848
71	759.6	8.109
72	764.6	7.006
73	767.0	7.016
74	772.8	8.178
75	778.0	6.648

Data Points
nm	Data
480.0	20.42
481.0	18.46
482.0	19.57
483.0	25.33
484.0	21.52
485.0	29.70
486.0	31.92
487.0	40.15
488.0	42.98
489.0	57.66
490.0	59.58
491.0	72.68
492.0	74.95
493.0	97.23
494.0	109.9
495.0	118.9
496.0	142.9
497.0	162.1
498.0	173.5
499.0	191.3
500.0	208.1
501.0	236.6
502.0	243.5
503.0	276.7
504.0	282.8
505.0	299.1
506.0	306.9
507.0	314.8
508.0	313.1
509.0	342.2
510.0	311.0
511.0	315.3
512.0	321.6
513.0	323.5
514.0	323.0
515.0	334.3
516.0	318.0
517.0	321.3
518.0	307.1
519.0	309.5
520.0	296.0
521.0	279.0
522.0	296.1
523.0	288.3
524.0	282.4
525.0	287.0
526.0	265.1
527.0	257.2
528.0	276.4
529.0	259.2
530.0	253.7
531.0	243.9
532.0	237.4
533.0	236.0
534.0	236.6
535.0	226.9
536.0	227.1
537.0	208.2
538.0	215.2
539.0	207.9
540.0	196.3
541.0	189.4
542.0	193.1
543.0	175.5
544.0	169.0
545.0	173.9
546.0	166.4
547.0	159.0
548.0	158.8
549.0	150.1
550.0	156.2
551.0	138.3
552.0	126.6
553.0	123.5
554.0	129.1
555.0	125.2
556.0	121.2
557.0	111.6
558.0	107.4
559.0	100.8
560.0	105.9
561.0	102.0
562.0	98.26
563.0	99.12
564.0	86.53
565.0	90.77
566.0	77.01
567.0	81.01
568.0	77.83
569.0	75.97
570.0	68.61
571.0	62.23
572.0	65.31
573.0	72.45
574.0	70.84
575.0	61.07
576.0	59.83
577.0	60.78
578.0	62.16
579.0	63.85
580.0	51.66
581.0	56.17
582.0	51.87
583.0	49.88
584.0	46.42
585.0	41.04
586.0	42.70
587.0	56.11
588.0	49.02
589.0	36.86
590.0	36.04
591.0	41.92
592.0	42.12
593.0	35.51
594.0	36.84
595.0	30.98
596.0	33.76
597.0	32.57
598.0	31.77
599.0	30.81
600.0	33.58
601.0	33.89
602.0	25.39
603.0	27.28
604.0	22.87
605.0	21.50
606.0	29.14
607.0	24.81
608.0	30.16
609.0	25.89
610.0	22.11
611.0	20.37
612.0	23.71
613.0	17.21
614.0	25.40
615.0	23.56
616.0	20.44
617.0	19.46
618.0	22.32
619.0	18.87
620.0	15.90
621.0	17.79
622.0	17.77
623.0	14.79
624.0	21.28
625.0	15.43
626.0	17.00
627.0	15.21
628.0	15.20
629.0	12.94
630.0	16.26
631.0	17.22
632.0	12.09
633.0	15.80
634.0	15.53
635.0	13.50
636.0	12.85
637.0	12.36
638.0	18.96
639.0	16.21
640.0	16.30
641.0	18.72
642.0	15.97
643.0	14.65
644.0	9.865
645.0	18.14
646.0	16.34
647.0	12.16
648.0	14.14
649.0	11.10
650.0	11.74
651.0	13.80
652.0	16.91
653.0	12.40
654.0	12.95
655.0	14.51
656.0	9.857
657.0	10.60
658.0	15.97
659.0	14.03
660.0	8.886
661.0	14.13
662.0	11.61
663.0	10.51
664.0	8.208
665.0	8.963
666.0	10.75
667.0	10.86
668.0	9.405
669.0	6.702
670.0	10.16
671.0	11.21
672.0	11.34
673.0	14.36
674.0	7.190
675.0	11.74
676.0	11.12
677.0	11.28
678.0	8.662
679.0	13.29
680.0	11.90
681.0	13.03
682.0	10.65
683.0	11.12
684.0	9.513
685.0	11.71
686.0	7.909
687.0	10.56
688.0	7.467
689.0	8.134
690.0	9.359
691.0	8.257
692.0	7.133
693.0	10.53
694.0	9.713
695.0	9.013
696.0	9.400
697.0	11.15
698.0	9.624
699.0	10.59
700.0	13.02
701.0	9.554
702.0	7.834
703.0	5.612
704.0	6.827
705.0	10.37
706.0	9.469
707.0	10.63
708.0	8.331
709.0	13.94
710.0	9.783
711.0	11.80
712.0	9.447
713.0	8.976
714.0	11.05
715.0	10.55
716.0	9.186
717.0	8.261
718.0	11.93
719.0	12.96
720.0	7.269
721.0	13.24
722.0	11.33
723.0	8.476
724.0	11.22
725.0	10.78
726.0	6.814
727.0	8.321
728.0	8.094
729.0	9.894
730.0	9.698
731.0	10.76
732.0	6.907
733.0	11.07
734.0	12.97
735.0	8.271
736.0	14.00
737.0	7.927
738.0	8.674
739.0	10.01
740.0	11.86
741.0	9.310
742.0	9.387
743.0	8.375
744.0	9.153
745.0	9.358
746.0	8.540
747.0	8.996
748.0	6.815
749.0	10.27
750.0	13.45
751.0	10.49
752.0	10.60
753.0	8.808
754.0	7.435
755.0	7.540
756.0	7.756
757.0	9.498
758.0	9.461
759.0	11.01
760.0	10.11
761.0	7.337
762.0	8.947
763.0	8.705
764.0	7.359
765.0	9.794
766.0	8.106
767.0	7.016
768.0	9.437
769.0	11.79
770.0	9.685
771.0	10.53
772.0	11.21
773.0	12.13
774.0	14.62
775.0	14.14
776.0	10.15
777.0	9.142
778.0	6.648
779.0	7.090
780.0	7.918

Sample:	'wa-2(EM)
File name:	60.FDS
Run Date:	'18:12:41, 07/11/2024
Operator:	WXH
Comment:	'

Instrument
Model:	F-4600 FL Spectrophotometer
Serial Number:	3080-002
ROM Version:	5J24000 02

Instrument Parameters
Measurement type:	Wavelength scan
Scan mode:	Emission
Data mode:	Fluorescence
EX WL:	460.0 nm
EM  Start WL:	480.0 nm
EM  End WL:	780.0 nm
Scan speed:	1200 nm/min
Delay:	0.0 s
EX Slit:	2.5 nm
EM Slit:	2.5 nm
PMT Voltage:	600 V
Response:	Auto 
Corrected spectra:	Off
Shutter control:	On

Peak integration
Integration method:	Rectangular
Sensitivity:	1
Threshold:	1.000

Peaks
No.	Valley(nm)	Valley(Data)
1	483.2	19.85
2	501.8	217.2
3	507.2	298.6
4	511.6	311.3
5	514.6	318.8
6	516.6	298.7
7	521.0	284.3
8	526.8	243.9
9	534.8	210.2
10	542.2	188.2
11	545.0	149.6
12	552.8	124.3
13	560.8	94.69
14	565.6	82.53
15	569.6	66.08
16	572.2	62.09
17	574.4	60.71
18	582.8	44.23
19	585.4	40.74
20	589.6	36.09
21	592.8	34.94
22	599.8	22.34
23	603.8	18.84
24	605.6	20.52
25	611.4	21.64
26	615.6	14.70
27	617.6	15.36
28	620.6	14.54
29	622.4	13.76
30	624.8	13.45
31	628.4	13.52
32	632.6	14.89
33	637.2	10.10
34	640.8	11.80
35	642.8	12.32
36	646.4	9.837
37	650.8	7.975
38	653.8	8.310
39	656.2	7.958
40	659.2	8.290
41	664.6	7.745
42	667.8	7.171
43	671.0	7.654
44	673.8	6.679
45	678.4	7.935
46	682.2	6.911
47	684.6	9.099
48	687.0	8.749
49	690.2	6.747
50	695.2	8.866
51	699.4	8.010
52	704.8	10.35
53	708.6	7.676
54	711.6	6.933
55	716.4	6.497
56	719.4	8.055
57	722.0	6.390
58	728.0	5.839
59	737.2	8.126
60	740.8	7.777
61	744.6	8.041
62	748.0	7.120
63	751.2	7.389
64	753.8	6.919
65	757.2	4.375
66	760.2	4.603
67	766.2	8.543
68	770.6	6.190
69	771.8	9.434
70	774.0	7.629
71	776.2	7.837
72	780.0	10.76

Data Points
nm	Data
480.0	14.26
481.0	22.33
482.0	27.04
483.0	21.70
484.0	23.22
485.0	29.74
486.0	44.06
487.0	46.27
488.0	43.45
489.0	59.40
490.0	60.92
491.0	65.72
492.0	81.24
493.0	97.09
494.0	116.8
495.0	126.4
496.0	152.0
497.0	160.0
498.0	181.4
499.0	190.0
500.0	228.6
501.0	227.9
502.0	229.6
503.0	264.3
504.0	277.5
505.0	295.2
506.0	317.2
507.0	304.6
508.0	316.3
509.0	326.3
510.0	333.8
511.0	325.7
512.0	331.7
513.0	335.3
514.0	328.4
515.0	322.7
516.0	310.7
517.0	311.4
518.0	305.4
519.0	305.0
520.0	304.1
521.0	284.3
522.0	293.2
523.0	278.9
524.0	290.3
525.0	276.8
526.0	256.9
527.0	252.0
528.0	252.3
529.0	275.2
530.0	265.0
531.0	258.3
532.0	243.7
533.0	239.4
534.0	224.6
535.0	212.3
536.0	217.8
537.0	209.1
538.0	208.9
539.0	206.8
540.0	208.2
541.0	194.5
542.0	198.4
543.0	188.4
544.0	178.8
545.0	149.6
546.0	160.9
547.0	151.1
548.0	150.7
549.0	144.1
550.0	138.3
551.0	139.3
552.0	136.3
553.0	125.6
554.0	126.8
555.0	131.9
556.0	114.2
557.0	109.5
558.0	102.9
559.0	99.88
560.0	105.6
561.0	100.7
562.0	93.22
563.0	90.28
564.0	92.61
565.0	89.35
566.0	86.11
567.0	89.28
568.0	83.66
569.0	75.69
570.0	74.89
571.0	77.09
572.0	69.51
573.0	65.76
574.0	62.68
575.0	69.77
576.0	68.84
577.0	64.31
578.0	62.87
579.0	54.50
580.0	57.31
581.0	53.66
582.0	53.77
583.0	46.77
584.0	44.84
585.0	43.84
586.0	47.22
587.0	46.57
588.0	40.66
589.0	38.16
590.0	39.95
591.0	41.54
592.0	37.90
593.0	35.51
594.0	45.42
595.0	39.94
596.0	37.72
597.0	35.91
598.0	30.61
599.0	24.25
600.0	24.30
601.0	29.03
602.0	34.09
603.0	28.08
604.0	22.20
605.0	29.35
606.0	24.74
607.0	21.27
608.0	28.66
609.0	26.44
610.0	21.46
611.0	23.04
612.0	22.69
613.0	24.72
614.0	18.49
615.0	19.39
616.0	16.38
617.0	22.91
618.0	16.45
619.0	19.20
620.0	19.41
621.0	17.71
622.0	17.28
623.0	16.39
624.0	13.25
625.0	14.97
626.0	17.43
627.0	17.07
628.0	19.54
629.0	13.82
630.0	18.04
631.0	18.12
632.0	15.70
633.0	15.46
634.0	20.17
635.0	13.90
636.0	14.92
637.0	10.65
638.0	11.36
639.0	17.30
640.0	15.03
641.0	12.73
642.0	14.35
643.0	15.04
644.0	15.24
645.0	13.98
646.0	13.76
647.0	10.27
648.0	12.05
649.0	17.65
650.0	12.88
651.0	8.021
652.0	8.983
653.0	11.27
654.0	10.16
655.0	11.95
656.0	10.46
657.0	12.48
658.0	12.56
659.0	10.01
660.0	9.261
661.0	15.39
662.0	11.27
663.0	9.664
664.0	9.097
665.0	12.19
666.0	11.76
667.0	11.46
668.0	8.106
669.0	14.77
670.0	11.19
671.0	7.654
672.0	11.38
673.0	12.12
674.0	9.364
675.0	11.77
676.0	12.84
677.0	12.04
678.0	9.529
679.0	11.17
680.0	10.32
681.0	9.722
682.0	7.677
683.0	10.55
684.0	12.43
685.0	11.89
686.0	13.85
687.0	8.749
688.0	9.687
689.0	8.017
690.0	7.946
691.0	10.27
692.0	9.505
693.0	10.86
694.0	11.62
695.0	9.930
696.0	10.21
697.0	8.989
698.0	9.063
699.0	9.351
700.0	9.093
701.0	11.29
702.0	11.77
703.0	12.10
704.0	10.36
705.0	11.61
706.0	13.55
707.0	11.34
708.0	11.58
709.0	9.223
710.0	15.38
711.0	8.136
712.0	12.81
713.0	9.593
714.0	11.60
715.0	7.830
716.0	7.312
717.0	10.23
718.0	12.85
719.0	12.23
720.0	8.379
721.0	12.09
722.0	6.390
723.0	8.935
724.0	14.30
725.0	11.78
726.0	10.21
727.0	7.988
728.0	5.839
729.0	9.451
730.0	7.966
731.0	12.82
732.0	10.08
733.0	13.67
734.0	11.19
735.0	10.83
736.0	10.70
737.0	8.616
738.0	10.35
739.0	12.37
740.0	10.17
741.0	9.256
742.0	13.88
743.0	12.94
744.0	11.63
745.0	8.251
746.0	10.93
747.0	7.752
748.0	7.120
749.0	11.16
750.0	10.35
751.0	7.397
752.0	10.40
753.0	11.00
754.0	8.369
755.0	9.992
756.0	10.57
757.0	5.985
758.0	9.011
759.0	8.470
760.0	6.805
761.0	6.517
762.0	7.528
763.0	7.664
764.0	8.459
765.0	8.943
766.0	10.03
767.0	9.248
768.0	9.328
769.0	10.90
770.0	8.209
771.0	10.55
772.0	9.548
773.0	10.44
774.0	7.629
775.0	8.436
776.0	10.11
777.0	12.62
778.0	12.46
779.0	10.81
780.0	10.76

Sample:	'wa-3(EM)
File name:	60.FDS
Run Date:	'18:13:11, 07/11/2024
Operator:	WXH
Comment:	'

Instrument
Model:	F-4600 FL Spectrophotometer
Serial Number:	3080-002
ROM Version:	5J24000 02

Instrument Parameters
Measurement type:	Wavelength scan
Scan mode:	Emission
Data mode:	Fluorescence
EX WL:	460.0 nm
EM  Start WL:	480.0 nm
EM  End WL:	780.0 nm
Scan speed:	1200 nm/min
Delay:	0.0 s
EX Slit:	2.5 nm
EM Slit:	2.5 nm
PMT Voltage:	600 V
Response:	Auto 
Corrected spectra:	Off
Shutter control:	On

Peak integration
Integration method:	Rectangular
Sensitivity:	1
Threshold:	1.000

Peaks
No.	Valley(nm)	Valley(Data)
1	482.2	18.50
2	511.0	305.1
3	513.8	314.5
4	518.0	290.6
5	520.6	302.5
6	526.0	253.6
7	528.4	246.5
8	532.0	234.2
9	534.6	225.3
10	538.2	201.0
11	542.6	173.6
12	544.6	168.7
13	549.8	142.8
14	551.8	136.3
15	553.6	123.5
16	561.2	91.22
17	567.4	75.89
18	574.0	57.04
19	577.6	53.83
20	582.2	41.94
21	584.4	40.34
22	587.2	36.40
23	589.2	34.02
24	592.8	32.27
25	595.8	27.83
26	602.4	22.72
27	606.6	20.57
28	609.8	18.97
29	614.4	16.23
30	617.0	12.47
31	623.6	12.24
32	627.8	14.48
33	629.6	12.08
34	633.8	13.21
35	635.2	12.88
36	639.0	12.07
37	643.6	6.650
38	652.2	4.447
39	657.0	7.555
40	660.4	9.984
41	662.4	9.710
42	666.8	10.94
43	670.6	7.947
44	675.2	8.114
45	679.2	7.209
46	685.6	7.796
47	692.8	9.028
48	695.6	8.148
49	697.4	5.242
50	699.6	4.990
51	703.2	7.765
52	707.0	7.519
53	708.2	6.625
54	712.8	4.998
55	717.4	6.781
56	720.4	9.155
57	722.8	5.744
58	726.0	8.108
59	729.6	8.968
60	736.8	5.855
61	740.6	6.728
62	743.2	7.334
63	745.4	8.771
64	750.4	7.013
65	752.8	5.417
66	756.0	6.364
67	760.0	7.911
68	765.0	7.359
69	768.2	9.606
70	773.2	6.915
71	774.8	6.884
72	777.0	8.737
73	780.0	10.94

Data Points
nm	Data
480.0	18.78
481.0	23.54
482.0	24.13
483.0	25.71
484.0	26.91
485.0	34.23
486.0	38.14
487.0	39.12
488.0	45.86
489.0	47.27
490.0	67.27
491.0	74.16
492.0	88.28
493.0	95.45
494.0	99.17
495.0	109.0
496.0	143.0
497.0	152.8
498.0	181.8
499.0	195.0
500.0	212.7
501.0	220.4
502.0	251.5
503.0	264.3
504.0	285.8
505.0	294.7
506.0	291.2
507.0	310.8
508.0	311.1
509.0	316.6
510.0	330.7
511.0	305.1
512.0	319.1
513.0	326.1
514.0	327.3
515.0	317.9
516.0	313.0
517.0	314.0
518.0	290.6
519.0	304.2
520.0	306.5
521.0	310.8
522.0	302.3
523.0	286.7
524.0	284.5
525.0	283.3
526.0	253.6
527.0	265.5
528.0	258.4
529.0	258.1
530.0	248.9
531.0	233.7
532.0	234.2
533.0	245.9
534.0	230.1
535.0	230.3
536.0	213.9
537.0	226.4
538.0	202.1
539.0	205.6
540.0	199.3
541.0	183.8
542.0	184.8
543.0	189.0
544.0	178.8
545.0	175.0
546.0	175.0
547.0	162.2
548.0	156.5
549.0	149.6
550.0	154.0
551.0	162.5
552.0	140.4
553.0	143.3
554.0	126.8
555.0	138.2
556.0	127.0
557.0	111.9
558.0	118.2
559.0	108.5
560.0	98.77
561.0	95.01
562.0	109.6
563.0	93.29
564.0	88.49
565.0	88.80
566.0	88.76
567.0	76.58
568.0	80.38
569.0	78.27
570.0	76.15
571.0	71.93
572.0	67.76
573.0	60.12
574.0	57.04
575.0	58.65
576.0	58.50
577.0	58.23
578.0	58.32
579.0	60.77
580.0	46.85
581.0	53.08
582.0	43.70
583.0	50.22
584.0	45.33
585.0	43.76
586.0	50.15
587.0	42.02
588.0	36.84
589.0	36.33
590.0	40.71
591.0	46.50
592.0	38.69
593.0	32.56
594.0	35.28
595.0	32.90
596.0	30.90
597.0	29.64
598.0	36.93
599.0	32.62
600.0	32.63
601.0	27.04
602.0	28.28
603.0	29.31
604.0	24.80
605.0	26.55
606.0	23.91
607.0	20.89
608.0	23.96
609.0	26.03
610.0	20.31
611.0	24.29
612.0	22.20
613.0	23.09
614.0	20.68
615.0	19.08
616.0	20.85
617.0	12.47
618.0	21.31
619.0	19.05
620.0	16.07
621.0	14.23
622.0	13.35
623.0	17.09
624.0	14.01
625.0	15.78
626.0	17.32
627.0	20.13
628.0	15.31
629.0	16.83
630.0	12.25
631.0	15.45
632.0	18.74
633.0	17.23
634.0	15.61
635.0	16.42
636.0	17.82
637.0	17.49
638.0	16.18
639.0	12.07
640.0	16.34
641.0	12.28
642.0	11.90
643.0	10.57
644.0	7.964
645.0	8.988
646.0	19.44
647.0	12.85
648.0	13.79
649.0	11.98
650.0	11.54
651.0	10.40
652.0	4.848
653.0	14.68
654.0	14.97
655.0	15.65
656.0	12.68
657.0	7.555
658.0	13.19
659.0	12.88
660.0	10.97
661.0	12.75
662.0	12.18
663.0	11.93
664.0	9.851
665.0	12.41
666.0	11.96
667.0	11.03
668.0	12.45
669.0	13.86
670.0	8.492
671.0	8.935
672.0	11.00
673.0	10.63
674.0	10.55
675.0	10.39
676.0	10.36
677.0	10.02
678.0	8.419
679.0	8.341
680.0	9.471
681.0	9.487
682.0	11.19
683.0	15.18
684.0	10.62
685.0	9.668
686.0	9.120
687.0	13.13
688.0	11.30
689.0	11.68
690.0	13.21
691.0	10.90
692.0	10.92
693.0	11.08
694.0	13.48
695.0	10.79
696.0	12.65
697.0	9.391
698.0	7.847
699.0	7.233
700.0	6.365
701.0	11.45
702.0	8.901
703.0	10.72
704.0	13.19
705.0	10.65
706.0	11.57
707.0	7.519
708.0	8.918
709.0	7.553
710.0	9.878
711.0	11.94
712.0	10.00
713.0	5.547
714.0	10.15
715.0	8.777
716.0	9.128
717.0	8.684
718.0	10.14
719.0	12.81
720.0	11.50
721.0	11.25
722.0	14.86
723.0	7.044
724.0	10.17
725.0	11.84
726.0	8.108
727.0	12.33
728.0	11.72
729.0	10.59
730.0	14.46
731.0	11.15
732.0	17.35
733.0	11.27
734.0	10.31
735.0	9.396
736.0	6.928
737.0	7.247
738.0	11.23
739.0	8.617
740.0	8.831
741.0	9.018
742.0	11.24
743.0	9.467
744.0	12.15
745.0	12.22
746.0	11.69
747.0	13.80
748.0	13.22
749.0	11.99
750.0	8.476
751.0	9.969
752.0	7.355
753.0	5.742
754.0	10.65
755.0	10.04
756.0	6.364
757.0	9.550
758.0	9.621
759.0	11.96
760.0	7.911
761.0	13.39
762.0	10.57
763.0	10.50
764.0	8.273
765.0	7.359
766.0	10.99
767.0	11.84
768.0	11.02
769.0	10.07
770.0	11.93
771.0	12.65
772.0	13.90
773.0	7.442
774.0	11.10
775.0	7.606
776.0	12.78
777.0	8.737
778.0	10.28
779.0	8.648
780.0	10.94

Sample:	'wa-4(EM)
File name:	60.FDS
Run Date:	'18:13:41, 07/11/2024
Operator:	WXH
Comment:	'

Instrument
Model:	F-4600 FL Spectrophotometer
Serial Number:	3080-002
ROM Version:	5J24000 02

Instrument Parameters
Measurement type:	Wavelength scan
Scan mode:	Emission
Data mode:	Fluorescence
EX WL:	460.0 nm
EM  Start WL:	480.0 nm
EM  End WL:	780.0 nm
Scan speed:	1200 nm/min
Delay:	0.0 s
EX Slit:	2.5 nm
EM Slit:	2.5 nm
PMT Voltage:	600 V
Response:	Auto 
Corrected spectra:	Off
Shutter control:	On

Peak integration
Integration method:	Rectangular
Sensitivity:	1
Threshold:	1.000

Peaks
No.	Valley(nm)	Valley(Data)
1	490.6	66.90
2	505.0	269.4
3	509.8	311.9
4	514.2	306.5
5	516.4	314.3
6	524.4	268.8
7	527.2	248.6
8	534.4	216.0
9	539.4	185.6
10	544.6	170.2
11	546.8	150.6
12	557.8	104.3
13	565.2	80.65
14	570.2	71.81
15	577.2	54.40
16	583.2	43.33
17	585.0	43.42
18	589.0	33.67
19	592.0	36.37
20	598.2	27.73
21	601.0	25.98
22	603.8	21.87
23	610.4	19.82
24	614.0	17.78
25	616.2	15.96
26	619.6	13.80
27	622.2	13.62
28	623.8	13.75
29	629.2	14.49
30	632.2	13.63
31	634.2	11.96
32	638.6	10.45
33	641.0	9.675
34	645.0	11.51
35	650.4	10.61
36	653.6	9.635
37	655.4	12.01
38	659.4	7.201
39	663.4	10.36
40	666.0	6.814
41	669.6	7.427
42	672.8	9.198
43	675.8	8.896
44	679.2	4.696
45	683.0	9.838
46	684.6	7.858
47	690.2	7.299
48	697.2	7.452
49	701.4	7.114
50	704.8	7.507
51	707.2	7.784
52	711.0	8.500
53	716.6	6.960
54	719.8	6.024
55	721.4	7.045
56	724.8	6.881
57	728.0	7.396
58	730.8	5.430
59	732.8	8.024
60	739.4	7.643
61	746.2	7.137
62	748.2	7.138
63	752.2	5.886
64	754.0	8.464
65	756.8	6.134
66	758.0	7.046
67	760.2	7.575
68	763.8	6.957
69	768.2	5.832
70	771.8	6.618
71	777.0	7.990
72	780.0	9.546

Data Points
nm	Data
480.0	12.98
481.0	18.65
482.0	27.42
483.0	27.61
484.0	30.74
485.0	37.80
486.0	35.74
487.0	45.15
488.0	52.70
489.0	58.33
490.0	77.23
491.0	73.21
492.0	83.96
493.0	88.24
494.0	106.8
495.0	122.7
496.0	131.1
497.0	150.9
498.0	177.6
499.0	189.3
500.0	216.4
501.0	241.8
502.0	255.4
503.0	267.2
504.0	281.7
505.0	269.4
506.0	304.8
507.0	327.3
508.0	316.1
509.0	321.5
510.0	322.8
511.0	319.7
512.0	340.9
513.0	332.2
514.0	313.0
515.0	331.0
516.0	321.4
517.0	333.5
518.0	318.0
519.0	303.7
520.0	308.6
521.0	298.8
522.0	285.3
523.0	283.3
524.0	280.0
525.0	276.8
526.0	272.1
527.0	253.1
528.0	259.5
529.0	260.3
530.0	260.9
531.0	255.0
532.0	242.6
533.0	229.6
534.0	217.2
535.0	224.5
536.0	214.3
537.0	217.4
538.0	202.9
539.0	189.8
540.0	195.5
541.0	210.6
542.0	190.4
543.0	179.2
544.0	179.6
545.0	181.8
546.0	180.9
547.0	156.2
548.0	161.4
549.0	149.4
550.0	131.1
551.0	134.1
552.0	137.5
553.0	134.5
554.0	138.2
555.0	118.6
556.0	130.5
557.0	115.4
558.0	104.9
559.0	107.7
560.0	103.4
561.0	98.03
562.0	99.55
563.0	94.57
564.0	89.64
565.0	86.73
566.0	82.72
567.0	79.41
568.0	83.14
569.0	79.46
570.0	74.31
571.0	73.49
572.0	75.35
573.0	69.56
574.0	71.49
575.0	70.50
576.0	63.97
577.0	57.10
578.0	56.73
579.0	60.07
580.0	55.64
581.0	56.73
582.0	52.81
583.0	43.62
584.0	46.65
585.0	43.42
586.0	51.29
587.0	41.57
588.0	37.41
589.0	33.67
590.0	43.17
591.0	40.30
592.0	36.37
593.0	40.51
594.0	46.24
595.0	36.50
596.0	33.73
597.0	32.47
598.0	33.65
599.0	32.56
600.0	28.83
601.0	25.98
602.0	31.90
603.0	27.97
604.0	22.24
605.0	28.17
606.0	27.37
607.0	22.95
608.0	27.20
609.0	21.83
610.0	22.85
611.0	20.40
612.0	24.54
613.0	22.76
614.0	17.78
615.0	21.93
616.0	18.43
617.0	17.97
618.0	18.95
619.0	18.53
620.0	16.44
621.0	17.84
622.0	14.67
623.0	21.19
624.0	16.39
625.0	16.46
626.0	14.95
627.0	17.08
628.0	19.46
629.0	15.32
630.0	19.04
631.0	15.85
632.0	16.08
633.0	20.97
634.0	13.63
635.0	13.49
636.0	13.95
637.0	12.49
638.0	11.17
639.0	10.88
640.0	15.63
641.0	9.675
642.0	15.71
643.0	13.46
644.0	16.92
645.0	11.51
646.0	14.41
647.0	20.29
648.0	13.52
649.0	13.62
650.0	11.17
651.0	15.00
652.0	13.36
653.0	14.18
654.0	11.22
655.0	17.65
656.0	12.37
657.0	13.71
658.0	11.85
659.0	9.756
660.0	7.912
661.0	14.95
662.0	11.49
663.0	12.78
664.0	15.48
665.0	8.917
666.0	6.814
667.0	12.49
668.0	9.754
669.0	9.804
670.0	12.44
671.0	12.43
672.0	11.11
673.0	14.06
674.0	13.49
675.0	10.30
676.0	10.09
677.0	11.47
678.0	10.30
679.0	7.597
680.0	10.33
681.0	12.26
682.0	10.75
683.0	9.838
684.0	9.224
685.0	9.140
686.0	10.82
687.0	11.98
688.0	10.90
689.0	9.010
690.0	7.770
691.0	9.242
692.0	11.17
693.0	11.02
694.0	10.17
695.0	9.445
696.0	10.52
697.0	8.017
698.0	10.87
699.0	8.390
700.0	12.00
701.0	9.581
702.0	11.28
703.0	12.04
704.0	10.32
705.0	8.789
706.0	12.77
707.0	9.106
708.0	10.87
709.0	10.71
710.0	10.93
711.0	8.500
712.0	10.21
713.0	10.50
714.0	9.350
715.0	10.36
716.0	9.546
717.0	9.116
718.0	13.07
719.0	7.559
720.0	11.18
721.0	10.41
722.0	15.47
723.0	15.91
724.0	10.09
725.0	10.96
726.0	10.49
727.0	9.897
728.0	7.396
729.0	9.465
730.0	11.17
731.0	7.775
732.0	14.47
733.0	9.523
734.0	12.99
735.0	13.13
736.0	14.12
737.0	11.10
738.0	10.30
739.0	9.585
740.0	8.554
741.0	9.460
742.0	13.49
743.0	10.60
744.0	10.84
745.0	11.08
746.0	8.936
747.0	10.56
748.0	10.19
749.0	10.78
750.0	10.56
751.0	8.933
752.0	7.008
753.0	9.779
754.0	8.464
755.0	9.710
756.0	6.252
757.0	7.692
758.0	7.046
759.0	8.502
760.0	9.907
761.0	10.87
762.0	14.98
763.0	8.191
764.0	7.375
765.0	8.982
766.0	9.476
767.0	11.29
768.0	8.546
769.0	10.46
770.0	9.858
771.0	6.710
772.0	10.07
773.0	9.739
774.0	11.06
775.0	8.807
776.0	10.13
777.0	7.990
778.0	11.87
779.0	9.520
780.0	9.546

Sample:	'wa-5(EM)
File name:	60.FDS
Run Date:	'18:14:11, 07/11/2024
Operator:	WXH
Comment:	'

Instrument
Model:	F-4600 FL Spectrophotometer
Serial Number:	3080-002
ROM Version:	5J24000 02

Instrument Parameters
Measurement type:	Wavelength scan
Scan mode:	Emission
Data mode:	Fluorescence
EX WL:	460.0 nm
EM  Start WL:	480.0 nm
EM  End WL:	780.0 nm
Scan speed:	1200 nm/min
Delay:	0.0 s
EX Slit:	2.5 nm
EM Slit:	2.5 nm
PMT Voltage:	600 V
Response:	Auto 
Corrected spectra:	Off
Shutter control:	On

Peak integration
Integration method:	Rectangular
Sensitivity:	1
Threshold:	1.000

Peaks
No.	Valley(nm)	Valley(Data)
1	508.0	293.0
2	510.8	304.6
3	513.2	310.9
4	520.2	283.9
5	523.4	273.1
6	530.4	235.8
7	531.6	229.5
8	534.4	215.5
9	539.4	194.0
10	546.0	161.6
11	549.0	129.1
12	552.2	139.1
13	554.8	120.4
14	558.8	102.1
15	561.0	85.94
16	564.6	83.32
17	571.8	59.71
18	575.6	55.22
19	578.6	44.97
20	584.8	37.90
21	587.6	38.59
22	591.0	32.60
23	594.6	28.88
24	598.0	27.43
25	603.6	25.84
26	605.0	24.02
27	609.2	20.51
28	613.0	18.69
29	614.6	19.78
30	616.8	15.01
31	620.4	13.15
32	624.4	14.11
33	630.2	14.65
34	633.8	14.23
35	637.8	11.96
36	641.0	10.46
37	642.6	10.28
38	646.0	11.36
39	647.8	8.854
40	649.6	8.819
41	652.0	8.520
42	657.4	10.92
43	659.6	5.312
44	664.4	9.170
45	668.8	6.810
46	671.2	8.048
47	672.6	8.673
48	674.8	7.615
49	677.8	7.067
50	679.6	7.221
51	681.6	8.656
52	684.2	6.116
53	686.6	7.643
54	688.4	6.943
55	693.2	5.729
56	697.4	9.571
57	700.8	9.465
58	705.6	7.392
59	708.0	6.652
60	709.6	6.757
61	713.2	6.763
62	716.8	6.161
63	722.6	7.558
64	727.4	7.780
65	731.6	9.394
66	734.2	6.546
67	736.0	8.009
68	737.6	6.525
69	740.2	8.759
70	746.2	7.616
71	752.2	7.031
72	757.2	4.562
73	759.6	6.697
74	766.6	6.908
75	769.6	6.449
76	773.0	7.546
77	776.2	7.466
78	780.0	11.78

Data Points
nm	Data
480.0	18.15
481.0	17.75
482.0	22.89
483.0	24.47
484.0	24.33
485.0	32.95
486.0	35.60
487.0	34.21
488.0	40.18
489.0	60.61
490.0	50.68
491.0	74.41
492.0	81.27
493.0	101.6
494.0	109.5
495.0	128.6
496.0	150.3
497.0	162.8
498.0	170.6
499.0	207.6
500.0	209.5
501.0	222.0
502.0	227.9
503.0	239.6
504.0	265.3
505.0	280.9
506.0	307.4
507.0	302.6
508.0	293.0
509.0	323.6
510.0	328.0
511.0	322.5
512.0	326.6
513.0	317.5
514.0	323.9
515.0	345.1
516.0	318.4
517.0	321.6
518.0	314.0
519.0	295.0
520.0	289.6
521.0	308.8
522.0	301.5
523.0	281.7
524.0	289.2
525.0	290.1
526.0	279.1
527.0	278.7
528.0	262.5
529.0	243.4
530.0	241.4
531.0	247.1
532.0	256.6
533.0	248.4
534.0	224.3
535.0	229.7
536.0	220.8
537.0	217.6
538.0	204.5
539.0	202.4
540.0	200.4
541.0	207.4
542.0	201.5
543.0	196.6
544.0	182.7
545.0	162.4
546.0	161.6
547.0	173.1
548.0	145.7
549.0	129.1
550.0	154.8
551.0	153.3
552.0	146.0
553.0	144.0
554.0	143.0
555.0	123.9
556.0	123.4
557.0	115.6
558.0	99.74
559.0	108.4
560.0	107.2
561.0	85.94
562.0	89.19
563.0	97.57
564.0	87.61
565.0	84.16
566.0	84.14
567.0	83.98
568.0	81.75
569.0	76.89
570.0	64.20
571.0	64.19
572.0	63.60
573.0	70.84
574.0	64.68
575.0	58.69
576.0	64.73
577.0	60.06
578.0	50.58
579.0	51.86
580.0	53.55
581.0	48.90
582.0	58.00
583.0	42.21
584.0	42.28
585.0	39.30
586.0	43.79
587.0	42.87
588.0	46.03
589.0	41.09
590.0	40.27
591.0	32.60
592.0	35.90
593.0	37.84
594.0	39.50
595.0	30.51
596.0	36.01
597.0	30.23
598.0	27.43
599.0	32.12
600.0	35.52
601.0	35.45
602.0	28.62
603.0	27.29
604.0	34.11
605.0	24.02
606.0	28.56
607.0	23.02
608.0	21.94
609.0	21.11
610.0	28.09
611.0	24.75
612.0	25.24
613.0	18.69
614.0	23.56
615.0	22.48
616.0	24.81
617.0	15.38
618.0	17.52
619.0	15.95
620.0	15.16
621.0	15.44
622.0	17.81
623.0	17.15
624.0	18.00
625.0	16.97
626.0	22.12
627.0	18.88
628.0	17.02
629.0	15.59
630.0	16.06
631.0	15.71
632.0	17.61
633.0	16.60
634.0	16.64
635.0	18.39
636.0	15.24
637.0	12.82
638.0	12.09
639.0	13.98
640.0	12.62
641.0	10.46
642.0	12.31
643.0	12.76
644.0	13.42
645.0	18.03
646.0	11.36
647.0	15.41
648.0	9.207
649.0	9.759
650.0	10.42
651.0	11.75
652.0	8.520
653.0	14.02
654.0	11.10
655.0	14.79
656.0	15.73
657.0	11.01
658.0	13.57
659.0	8.717
660.0	9.914
661.0	13.69
662.0	14.80
663.0	10.51
664.0	10.68
665.0	13.96
666.0	15.15
667.0	7.757
668.0	6.886
669.0	8.162
670.0	13.51
671.0	8.939
672.0	10.55
673.0	9.683
674.0	10.72
675.0	9.432
676.0	13.31
677.0	12.95
678.0	8.687
679.0	9.391
680.0	10.16
681.0	10.23
682.0	10.72
683.0	11.33
684.0	6.661
685.0	8.340
686.0	10.69
687.0	9.279
688.0	7.168
689.0	10.10
690.0	11.77
691.0	15.59
692.0	8.922
693.0	6.720
694.0	6.906
695.0	12.72
696.0	11.69
697.0	10.26
698.0	12.27
699.0	14.21
700.0	10.30
701.0	9.467
702.0	12.75
703.0	11.32
704.0	10.06
705.0	7.504
706.0	8.973
707.0	9.157
708.0	6.652
709.0	7.842
710.0	7.652
711.0	8.822
712.0	9.398
713.0	8.786
714.0	7.211
715.0	11.59
716.0	8.143
717.0	7.231
718.0	8.406
719.0	8.655
720.0	12.71
721.0	9.095
722.0	9.845
723.0	10.41
724.0	11.22
725.0	8.459
726.0	9.217
727.0	8.760
728.0	7.869
729.0	8.687
730.0	11.46
731.0	12.68
732.0	10.98
733.0	10.89
734.0	7.416
735.0	9.770
736.0	8.009
737.0	10.86
738.0	8.772
739.0	9.464
740.0	10.53
741.0	10.84
742.0	13.48
743.0	9.791
744.0	13.18
745.0	10.23
746.0	8.572
747.0	9.295
748.0	9.774
749.0	10.06
750.0	9.215
751.0	10.24
752.0	8.391
753.0	12.31
754.0	10.60
755.0	10.30
756.0	7.088
757.0	5.905
758.0	9.358
759.0	8.611
760.0	6.764
761.0	10.42
762.0	8.455
763.0	11.41
764.0	10.06
765.0	12.22
766.0	10.95
767.0	8.687
768.0	9.610
769.0	6.706
770.0	7.680
771.0	9.814
772.0	10.81
773.0	7.546
774.0	12.11
775.0	11.82
776.0	7.472
777.0	8.792
778.0	8.249
779.0	8.321
780.0	11.78

Sample:	'wa-6(EM)
File name:	60.FDS
Run Date:	'18:14:42, 07/11/2024
Operator:	WXH
Comment:	'

Instrument
Model:	F-4600 FL Spectrophotometer
Serial Number:	3080-002
ROM Version:	5J24000 02

Instrument Parameters
Measurement type:	Wavelength scan
Scan mode:	Emission
Data mode:	Fluorescence
EX WL:	460.0 nm
EM  Start WL:	480.0 nm
EM  End WL:	780.0 nm
Scan speed:	1200 nm/min
Delay:	0.0 s
EX Slit:	2.5 nm
EM Slit:	2.5 nm
PMT Voltage:	600 V
Response:	Auto 
Corrected spectra:	Off
Shutter control:	On

Peak integration
Integration method:	Rectangular
Sensitivity:	1
Threshold:	1.000

Peaks
No.	Valley(nm)	Valley(Data)
1	508.2	291.7
2	512.2	310.1
3	514.0	320.5
4	517.2	303.1
5	522.6	279.0
6	527.4	254.2
7	531.0	249.4
8	535.8	217.8
9	545.0	157.6
10	551.0	134.2
11	555.8	110.3
12	557.0	103.3
13	567.4	76.16
14	569.4	74.47
15	575.6	51.32
16	579.4	48.70
17	585.2	42.42
18	590.2	34.68
19	595.6	26.57
20	597.6	29.03
21	599.4	27.38
22	602.2	25.30
23	606.4	21.94
24	612.2	21.92
25	615.4	15.97
26	619.6	14.20
27	624.2	12.19
28	626.6	15.24
29	630.0	12.01
30	639.0	12.80
31	640.8	8.717
32	643.8	12.16
33	648.8	9.575
34	652.2	8.143
35	655.6	8.562
36	659.2	7.646
37	667.4	8.465
38	670.2	8.878
39	671.0	7.803
40	673.6	9.514
41	677.0	6.739
42	682.2	8.092
43	686.0	8.558
44	687.4	7.269
45	692.2	6.176
46	698.6	6.522
47	701.2	6.725
48	704.8	7.050
49	706.8	7.666
50	709.2	8.474
51	712.6	4.799
52	723.0	6.968
53	725.6	6.911
54	729.6	8.949
55	734.2	6.096
56	739.6	5.200
57	744.6	6.569
58	747.6	6.984
59	751.4	8.377
60	754.8	7.596
61	758.6	8.062
62	761.8	7.495
63	764.2	4.722
64	765.8	5.512
65	772.0	5.585
66	780.0	8.328

Data Points
nm	Data
480.0	13.32
481.0	16.62
482.0	20.87
483.0	22.48
484.0	23.74
485.0	35.42
486.0	39.21
487.0	41.68
488.0	51.77
489.0	62.35
490.0	60.85
491.0	72.04
492.0	86.47
493.0	92.81
494.0	95.19
495.0	123.8
496.0	141.9
497.0	152.1
498.0	172.8
499.0	186.3
500.0	217.7
501.0	230.7
502.0	241.8
503.0	247.9
504.0	283.5
505.0	292.3
506.0	295.7
507.0	297.0
508.0	304.4
509.0	314.5
510.0	337.1
511.0	328.2
512.0	316.1
513.0	344.5
514.0	320.5
515.0	336.6
516.0	311.3
517.0	308.3
518.0	313.9
519.0	303.7
520.0	301.4
521.0	311.6
522.0	285.9
523.0	284.3
524.0	283.9
525.0	284.8
526.0	281.0
527.0	263.8
528.0	269.1
529.0	265.4
530.0	255.6
531.0	249.4
532.0	249.3
533.0	247.0
534.0	234.4
535.0	235.6
536.0	226.8
537.0	229.0
538.0	216.1
539.0	213.1
540.0	202.1
541.0	204.1
542.0	177.1
543.0	183.3
544.0	178.8
545.0	157.6
546.0	177.3
547.0	157.0
548.0	142.7
549.0	146.0
550.0	147.7
551.0	134.2
552.0	141.4
553.0	140.2
554.0	128.6
555.0	114.6
556.0	112.9
557.0	103.3
558.0	116.3
559.0	111.4
560.0	109.3
561.0	108.7
562.0	99.45
563.0	89.04
564.0	93.04
565.0	90.69
566.0	83.37
567.0	83.15
568.0	85.07
569.0	77.55
570.0	79.04
571.0	74.92
572.0	79.04
573.0	65.83
574.0	68.21
575.0	63.59
576.0	56.15
577.0	64.49
578.0	59.26
579.0	53.20
580.0	54.47
581.0	58.01
582.0	60.73
583.0	49.97
584.0	48.35
585.0	47.34
586.0	49.61
587.0	49.18
588.0	45.56
589.0	40.40
590.0	35.01
591.0	42.12
592.0	38.59
593.0	37.43
594.0	32.30
595.0	29.65
596.0	28.32
597.0	29.56
598.0	34.43
599.0	29.35
600.0	31.08
601.0	32.15
602.0	28.01
603.0	29.20
604.0	30.40
605.0	26.66
606.0	22.32
607.0	22.05
608.0	24.01
609.0	21.64
610.0	23.62
611.0	26.30
612.0	25.00
613.0	23.66
614.0	19.89
615.0	18.49
616.0	21.76
617.0	22.79
618.0	25.44
619.0	18.16
620.0	15.88
621.0	18.57
622.0	23.83
623.0	18.62
624.0	15.72
625.0	21.81
626.0	23.45
627.0	16.45
628.0	18.02
629.0	14.37
630.0	12.01
631.0	14.18
632.0	13.95
633.0	16.37
634.0	14.40
635.0	15.23
636.0	15.94
637.0	20.77
638.0	16.30
639.0	12.80
640.0	14.50
641.0	13.05
642.0	13.12
643.0	12.47
644.0	12.34
645.0	15.17
646.0	13.49
647.0	13.30
648.0	12.24
649.0	13.16
650.0	14.33
651.0	14.21
652.0	9.262
653.0	11.72
654.0	11.10
655.0	9.644
656.0	10.48
657.0	12.25
658.0	10.82
659.0	8.645
660.0	9.951
661.0	13.58
662.0	11.86
663.0	13.71
664.0	6.491
665.0	9.460
666.0	10.86
667.0	9.622
668.0	11.98
669.0	8.993
670.0	10.86
671.0	7.803
672.0	9.240
673.0	12.73
674.0	11.90
675.0	11.85
676.0	13.06
677.0	6.739
678.0	12.17
679.0	11.32
680.0	9.925
681.0	9.039
682.0	9.132
683.0	9.951
684.0	10.99
685.0	11.25
686.0	8.558
687.0	10.88
688.0	9.138
689.0	12.07
690.0	12.42
691.0	11.84
692.0	6.186
693.0	6.997
694.0	7.886
695.0	11.54
696.0	10.11
697.0	11.04
698.0	8.630
699.0	7.700
700.0	9.730
701.0	7.954
702.0	10.57
703.0	9.831
704.0	7.833
705.0	8.784
706.0	9.224
707.0	8.640
708.0	9.703
709.0	8.504
710.0	10.37
711.0	13.31
712.0	10.50
713.0	8.058
714.0	6.794
715.0	10.20
716.0	13.40
717.0	10.92
718.0	11.31
719.0	13.69
720.0	11.34
721.0	10.86
722.0	8.795
723.0	6.968
724.0	8.184
725.0	10.43
726.0	10.88
727.0	11.91
728.0	12.98
729.0	12.44
730.0	12.40
731.0	15.41
732.0	9.446
733.0	7.429
734.0	6.499
735.0	12.23
736.0	12.72
737.0	11.06
738.0	9.763
739.0	7.475
740.0	9.109
741.0	8.447
742.0	7.895
743.0	11.31
744.0	8.470
745.0	8.819
746.0	7.491
747.0	9.729
748.0	12.09
749.0	10.18
750.0	12.28
751.0	9.854
752.0	10.12
753.0	10.08
754.0	12.69
755.0	9.281
756.0	11.82
757.0	11.08
758.0	11.34
759.0	10.36
760.0	11.35
761.0	10.15
762.0	9.811
763.0	9.982
764.0	6.301
765.0	6.954
766.0	5.761
767.0	8.522
768.0	11.07
769.0	11.10
770.0	10.29
771.0	9.274
772.0	5.585
773.0	8.821
774.0	10.84
775.0	10.92
776.0	10.40
777.0	9.280
778.0	8.032
779.0	6.868
780.0	8.328

Sample:	'wa-7(EM)
File name:	60.FDS
Run Date:	'18:15:12, 07/11/2024
Operator:	WXH
Comment:	'

Instrument
Model:	F-4600 FL Spectrophotometer
Serial Number:	3080-002
ROM Version:	5J24000 02

Instrument Parameters
Measurement type:	Wavelength scan
Scan mode:	Emission
Data mode:	Fluorescence
EX WL:	460.0 nm
EM  Start WL:	480.0 nm
EM  End WL:	780.0 nm
Scan speed:	1200 nm/min
Delay:	0.0 s
EX Slit:	2.5 nm
EM Slit:	2.5 nm
PMT Voltage:	600 V
Response:	Auto 
Corrected spectra:	Off
Shutter control:	On

Peak integration
Integration method:	Rectangular
Sensitivity:	1
Threshold:	1.000

Peaks
No.	Valley(nm)	Valley(Data)
1	509.8	304.6
2	521.4	273.4
3	525.0	255.9
4	526.8	244.5
5	529.8	259.4
6	531.6	245.3
7	535.0	205.7
8	538.6	189.2
9	541.0	189.3
10	544.4	154.7
11	550.6	140.2
12	559.2	98.59
13	566.4	75.14
14	568.4	75.01
15	571.2	70.45
16	573.2	53.62
17	577.8	51.45
18	580.0	52.06
19	585.4	40.41
20	590.0	38.31
21	595.0	29.52
22	601.6	25.58
23	603.8	21.26
24	608.2	19.60
25	611.0	19.06
26	613.2	19.41
27	615.8	14.12
28	619.0	14.98
29	621.6	12.35
30	625.2	14.63
31	630.2	11.71
32	632.0	12.67
33	633.8	12.54
34	638.4	12.60
35	641.0	12.34
36	643.2	11.18
37	645.4	10.39
38	650.2	11.18
39	652.6	9.481
40	656.8	7.283
41	661.0	7.781
42	664.8	7.554
43	668.4	9.690
44	672.6	8.076
45	676.6	9.060
46	679.2	7.845
47	683.8	9.472
48	687.4	7.554
49	690.0	8.252
50	693.4	7.052
51	694.8	8.303
52	698.4	7.010
53	702.8	8.114
54	705.2	7.593
55	708.0	10.23
56	709.8	9.359
57	711.4	9.658
58	713.0	7.295
59	715.4	6.148
60	723.6	5.680
61	725.2	6.955
62	728.8	10.30
63	732.0	8.050
64	735.2	7.978
65	740.0	6.241
66	746.4	6.729
67	748.4	6.007
68	752.2	6.763
69	753.6	6.955
70	756.6	7.610
71	759.8	7.257
72	763.4	7.327
73	769.8	6.954
74	773.2	7.181
75	776.0	8.408
76	778.0	8.324

Data Points
nm	Data
480.0	11.77
481.0	17.77
482.0	24.29
483.0	26.10
484.0	28.49
485.0	34.96
486.0	38.32
487.0	39.21
488.0	49.49
489.0	50.76
490.0	61.79
491.0	73.46
492.0	75.96
493.0	91.87
494.0	112.6
495.0	121.2
496.0	139.1
497.0	151.0
498.0	175.9
499.0	210.5
500.0	218.4
501.0	221.9
502.0	244.4
503.0	263.8
504.0	280.6
505.0	291.2
506.0	304.3
507.0	317.1
508.0	326.3
509.0	324.9
510.0	317.6
511.0	330.8
512.0	330.4
513.0	317.9
514.0	334.6
515.0	323.4
516.0	310.6
517.0	303.1
518.0	310.2
519.0	300.9
520.0	289.6
521.0	289.2
522.0	290.5
523.0	288.9
524.0	301.5
525.0	255.9
526.0	267.1
527.0	252.6
528.0	269.8
529.0	265.4
530.0	260.3
531.0	250.4
532.0	260.0
533.0	247.4
534.0	234.2
535.0	205.7
536.0	222.2
537.0	217.4
538.0	198.6
539.0	201.8
540.0	194.9
541.0	189.3
542.0	201.2
543.0	188.5
544.0	177.7
545.0	171.5
546.0	163.4
547.0	164.6
548.0	163.4
549.0	156.9
550.0	153.3
551.0	147.5
552.0	148.4
553.0	131.1
554.0	125.1
555.0	125.8
556.0	114.2
557.0	112.8
558.0	103.5
559.0	102.0
560.0	106.4
561.0	105.2
562.0	98.70
563.0	86.13
564.0	90.64
565.0	89.40
566.0	82.06
567.0	84.43
568.0	77.83
569.0	77.18
570.0	71.83
571.0	70.71
572.0	76.04
573.0	58.22
574.0	67.06
575.0	66.39
576.0	58.56
577.0	54.87
578.0	58.43
579.0	56.25
580.0	52.06
581.0	59.38
582.0	48.35
583.0	47.51
584.0	48.45
585.0	44.93
586.0	48.60
587.0	45.07
588.0	42.32
589.0	42.35
590.0	38.31
591.0	44.18
592.0	35.31
593.0	31.87
594.0	30.67
595.0	29.52
596.0	33.32
597.0	36.62
598.0	35.60
599.0	28.55
600.0	25.70
601.0	28.64
602.0	29.56
603.0	26.36
604.0	25.06
605.0	31.65
606.0	31.57
607.0	26.00
608.0	22.16
609.0	23.62
610.0	21.87
611.0	19.06
612.0	21.94
613.0	20.27
614.0	23.29
615.0	19.59
616.0	14.78
617.0	18.92
618.0	18.80
619.0	14.98
620.0	18.14
621.0	16.23
622.0	14.45
623.0	15.21
624.0	19.14
625.0	15.60
626.0	22.11
627.0	20.41
628.0	16.29
629.0	15.21
630.0	12.39
631.0	19.99
632.0	12.67
633.0	15.70
634.0	15.75
635.0	18.58
636.0	19.38
637.0	15.44
638.0	17.77
639.0	15.46
640.0	17.47
641.0	12.34
642.0	16.65
643.0	11.61
644.0	14.55
645.0	11.03
646.0	11.11
647.0	14.21
648.0	13.33
649.0	13.05
650.0	12.02
651.0	14.46
652.0	12.67
653.0	12.50
654.0	14.11
655.0	9.346
656.0	11.00
657.0	12.31
658.0	13.83
659.0	11.57
660.0	9.007
661.0	7.781
662.0	12.88
663.0	11.30
664.0	10.51
665.0	8.055
666.0	11.12
667.0	14.19
668.0	11.61
669.0	11.20
670.0	12.90
671.0	13.07
672.0	8.557
673.0	11.81
674.0	10.89
675.0	10.69
676.0	10.54
677.0	15.72
678.0	11.27
679.0	8.434
680.0	8.351
681.0	9.425
682.0	10.37
683.0	10.79
684.0	11.73
685.0	11.64
686.0	9.897
687.0	8.040
688.0	9.310
689.0	10.87
690.0	8.252
691.0	10.10
692.0	8.089
693.0	8.450
694.0	10.90
695.0	9.101
696.0	11.51
697.0	14.59
698.0	7.982
699.0	7.947
700.0	7.651
701.0	8.521
702.0	8.507
703.0	8.943
704.0	9.834
705.0	9.100
706.0	11.87
707.0	13.95
708.0	10.23
709.0	12.13
710.0	12.76
711.0	11.48
712.0	13.64
713.0	7.295
714.0	8.709
715.0	11.04
716.0	8.684
717.0	11.89
718.0	11.05
719.0	9.779
720.0	9.679
721.0	11.47
722.0	10.24
723.0	7.057
724.0	9.321
725.0	8.236
726.0	12.26
727.0	10.28
728.0	10.91
729.0	10.95
730.0	11.02
731.0	9.955
732.0	8.050
733.0	10.06
734.0	10.85
735.0	9.047
736.0	13.37
737.0	11.95
738.0	11.32
739.0	11.18
740.0	6.241
741.0	9.723
742.0	16.88
743.0	11.55
744.0	7.474
745.0	8.882
746.0	7.861
747.0	8.692
748.0	8.503
749.0	8.735
750.0	8.874
751.0	9.019
752.0	7.993
753.0	9.875
754.0	7.228
755.0	6.728
756.0	12.07
757.0	8.380
758.0	9.971
759.0	10.35
760.0	9.538
761.0	10.00
762.0	13.98
763.0	10.90
764.0	8.683
765.0	8.663
766.0	11.06
767.0	13.48
768.0	11.36
769.0	9.994
770.0	7.372
771.0	9.257
772.0	9.113
773.0	9.796
774.0	10.78
775.0	10.41
776.0	8.408
777.0	12.42
778.0	8.324
779.0	10.30
780.0	13.39

Sample:	'wa-8(EM)
File name:	60.FDS
Run Date:	'18:15:42, 07/11/2024
Operator:	WXH
Comment:	'

Instrument
Model:	F-4600 FL Spectrophotometer
Serial Number:	3080-002
ROM Version:	5J24000 02

Instrument Parameters
Measurement type:	Wavelength scan
Scan mode:	Emission
Data mode:	Fluorescence
EX WL:	460.0 nm
EM  Start WL:	480.0 nm
EM  End WL:	780.0 nm
Scan speed:	1200 nm/min
Delay:	0.0 s
EX Slit:	2.5 nm
EM Slit:	2.5 nm
PMT Voltage:	600 V
Response:	Auto 
Corrected spectra:	Off
Shutter control:	On

Peak integration
Integration method:	Rectangular
Sensitivity:	1
Threshold:	1.000

Peaks
No.	Valley(nm)	Valley(Data)
1	509.4	308.6
2	511.6	301.6
3	515.0	307.3
4	519.8	287.6
5	525.0	269.3
6	528.6	256.0
7	534.6	218.5
8	542.8	180.9
9	553.4	125.6
10	556.0	112.3
11	559.4	93.74
12	561.4	88.01
13	563.0	86.00
14	564.8	83.31
15	567.6	74.05
16	569.2	68.34
17	574.0	61.29
18	579.0	53.31
19	582.4	44.67
20	587.0	37.24
21	592.6	31.54
22	596.2	31.67
23	602.8	21.65
24	610.2	20.23
25	612.4	16.66
26	615.8	15.02
27	618.0	17.13
28	620.0	14.94
29	621.6	16.14
30	624.6	12.87
31	628.8	14.32
32	631.8	13.38
33	634.6	11.32
34	636.8	13.00
35	640.6	8.980
36	643.2	14.25
37	646.0	10.76
38	649.2	7.758
39	652.0	9.363
40	654.8	8.058
41	659.6	8.461
42	662.4	8.406
43	665.2	8.072
44	668.2	8.147
45	671.0	6.987
46	678.0	7.118
47	682.6	8.125
48	684.6	10.47
49	688.0	7.432
50	692.2	7.781
51	696.2	9.330
52	700.4	7.982
53	702.4	9.013
54	708.0	6.177
55	710.0	5.715
56	713.8	7.362
57	720.2	7.808
58	721.4	7.389
59	724.4	9.165
60	727.2	10.42
61	734.2	8.048
62	737.6	5.944
63	740.4	7.936
64	742.8	6.848
65	745.8	9.572
66	749.2	8.684
67	754.6	7.054
68	759.4	8.741
69	762.0	5.340
70	766.8	7.336
71	772.0	5.729
72	773.6	6.303
73	780.0	9.476

Data Points
nm	Data
480.0	16.73
481.0	19.54
482.0	19.91
483.0	28.25
484.0	26.84
485.0	31.07
486.0	34.01
487.0	41.44
488.0	45.07
489.0	52.77
490.0	56.55
491.0	75.71
492.0	88.24
493.0	91.26
494.0	119.5
495.0	117.3
496.0	149.9
497.0	158.5
498.0	173.2
499.0	191.5
500.0	212.0
501.0	224.8
502.0	245.0
503.0	264.5
504.0	281.7
505.0	287.0
506.0	301.5
507.0	314.6
508.0	331.3
509.0	312.9
510.0	322.2
511.0	319.4
512.0	328.1
513.0	333.7
514.0	319.0
515.0	307.3
516.0	319.7
517.0	311.0
518.0	311.2
519.0	303.0
520.0	287.9
521.0	302.9
522.0	294.7
523.0	288.8
524.0	290.4
525.0	269.3
526.0	287.5
527.0	277.0
528.0	265.6
529.0	262.0
530.0	266.4
531.0	252.1
532.0	240.9
533.0	226.0
534.0	229.8
535.0	220.1
536.0	232.9
537.0	232.3
538.0	226.2
539.0	208.6
540.0	198.2
541.0	188.6
542.0	184.3
543.0	191.7
544.0	184.7
545.0	181.8
546.0	175.9
547.0	163.6
548.0	159.3
549.0	149.9
550.0	143.8
551.0	143.3
552.0	139.2
553.0	132.1
554.0	130.3
555.0	120.9
556.0	112.3
557.0	114.4
558.0	114.4
559.0	108.8
560.0	108.4
561.0	101.5
562.0	98.38
563.0	86.00
564.0	98.49
565.0	84.91
566.0	90.71
567.0	82.44
568.0	79.90
569.0	71.89
570.0	77.26
571.0	71.39
572.0	72.23
573.0	66.10
574.0	61.29
575.0	73.10
576.0	67.02
577.0	66.90
578.0	67.00
579.0	53.31
580.0	58.99
581.0	46.21
582.0	50.61
583.0	48.65
584.0	49.60
585.0	42.82
586.0	41.81
587.0	37.24
588.0	45.09
589.0	41.42
590.0	39.57
591.0	39.92
592.0	39.74
593.0	40.72
594.0	39.26
595.0	42.10
596.0	35.00
597.0	35.48
598.0	37.94
599.0	31.16
600.0	31.14
601.0	25.99
602.0	27.50
603.0	23.81
604.0	30.68
605.0	25.61
606.0	24.51
607.0	28.24
608.0	27.51
609.0	18.10
610.0	21.10
611.0	24.19
612.0	19.13
613.0	20.47
614.0	23.09
615.0	18.13
616.0	15.66
617.0	19.25
618.0	17.13
619.0	18.92
620.0	14.94
621.0	18.72
622.0	17.28
623.0	20.62
624.0	15.55
625.0	15.64
626.0	17.45
627.0	16.10
628.0	18.39
629.0	15.14
630.0	19.24
631.0	18.98
632.0	15.51
633.0	20.58
634.0	13.72
635.0	15.86
636.0	15.24
637.0	13.17
638.0	15.05
639.0	14.06
640.0	11.10
641.0	9.091
642.0	18.30
643.0	14.29
644.0	16.98
645.0	13.27
646.0	10.76
647.0	12.24
648.0	14.39
649.0	8.448
650.0	9.974
651.0	12.12
652.0	9.363
653.0	13.05
654.0	10.32
655.0	8.797
656.0	14.74
657.0	11.62
658.0	11.66
659.0	9.489
660.0	13.98
661.0	10.81
662.0	11.85
663.0	11.05
664.0	9.414
665.0	9.826
666.0	11.37
667.0	10.70
668.0	8.680
669.0	15.44
670.0	9.029
671.0	6.987
672.0	9.273
673.0	11.95
674.0	10.79
675.0	11.32
676.0	10.49
677.0	9.278
678.0	7.118
679.0	10.29
680.0	11.80
681.0	14.18
682.0	12.15
683.0	12.33
684.0	14.29
685.0	11.64
686.0	13.06
687.0	13.21
688.0	7.432
689.0	12.22
690.0	6.910
691.0	9.028
692.0	9.443
693.0	11.32
694.0	13.20
695.0	11.10
696.0	10.15
697.0	12.05
698.0	11.48
699.0	9.382
700.0	10.84
701.0	12.42
702.0	9.656
703.0	11.62
704.0	9.950
705.0	9.562
706.0	9.971
707.0	7.353
708.0	6.177
709.0	9.440
710.0	5.715
711.0	8.194
712.0	12.54
713.0	10.74
714.0	10.13
715.0	10.18
716.0	11.18
717.0	12.88
718.0	10.33
719.0	10.57
720.0	8.043
721.0	8.356
722.0	8.815
723.0	11.68
724.0	13.43
725.0	12.62
726.0	15.26
727.0	12.47
728.0	13.54
729.0	11.27
730.0	11.18
731.0	12.28
732.0	9.383
733.0	11.51
734.0	11.97
735.0	12.57
736.0	13.58
737.0	9.332
738.0	8.657
739.0	9.890
740.0	10.81
741.0	10.36
742.0	10.03
743.0	8.935
744.0	13.80
745.0	13.34
746.0	10.72
747.0	12.94
748.0	13.25
749.0	10.74
750.0	10.59
751.0	11.44
752.0	10.21
753.0	9.472
754.0	9.848
755.0	10.69
756.0	10.64
757.0	11.58
758.0	11.35
759.0	10.35
760.0	11.41
761.0	10.94
762.0	5.340
763.0	8.485
764.0	11.76
765.0	9.230
766.0	12.57
767.0	7.673
768.0	8.621
769.0	8.784
770.0	8.353
771.0	10.56
772.0	5.729
773.0	8.439
774.0	7.735
775.0	8.013
776.0	8.080
777.0	9.330
778.0	12.62
779.0	9.034
780.0	9.476

Sample:	'wa-9(EM)
File name:	60.FDS
Run Date:	'18:16:12, 07/11/2024
Operator:	WXH
Comment:	'

Instrument
Model:	F-4600 FL Spectrophotometer
Serial Number:	3080-002
ROM Version:	5J24000 02

Instrument Parameters
Measurement type:	Wavelength scan
Scan mode:	Emission
Data mode:	Fluorescence
EX WL:	460.0 nm
EM  Start WL:	480.0 nm
EM  End WL:	780.0 nm
Scan speed:	1200 nm/min
Delay:	0.0 s
EX Slit:	2.5 nm
EM Slit:	2.5 nm
PMT Voltage:	600 V
Response:	Auto 
Corrected spectra:	Off
Shutter control:	On

Peak integration
Integration method:	Rectangular
Sensitivity:	1
Threshold:	1.000

Peaks
No.	Valley(nm)	Valley(Data)
1	484.2	26.49
2	506.6	295.8
3	512.0	311.0
4	516.2	293.3
5	518.8	301.1
6	524.6	271.8
7	526.8	260.6
8	533.0	219.6
9	534.8	218.2
10	538.2	201.5
11	543.4	161.2
12	547.2	151.1
13	549.6	138.6
14	560.2	97.78
15	564.6	80.39
16	565.8	78.62
17	571.0	66.78
18	575.2	57.01
19	577.8	47.49
20	581.8	37.82
21	585.4	39.62
22	590.0	36.86
23	593.6	32.56
24	595.4	32.40
25	601.8	25.65
26	609.2	19.10
27	616.4	16.13
28	620.0	12.97
29	622.8	13.95
30	629.6	10.99
31	632.4	10.63
32	635.8	11.50
33	638.0	11.04
34	641.2	11.10
35	644.0	8.946
36	647.4	8.968
37	651.6	7.911
38	654.8	11.11
39	657.6	10.39
40	659.6	9.797
41	665.2	8.774
42	673.4	7.340
43	675.4	7.811
44	677.8	5.993
45	680.0	6.980
46	682.4	6.858
47	684.6	8.473
48	688.8	9.177
49	690.2	8.649
50	693.2	8.477
51	695.8	8.962
52	701.6	6.512
53	704.4	6.074
54	707.2	8.101
55	709.8	7.268
56	712.2	6.049
57	715.6	5.592
58	720.8	8.484
59	722.6	8.361
60	725.8	7.135
61	728.6	8.670
62	732.0	7.957
63	734.6	6.537
64	739.2	7.208
65	741.0	7.453
66	747.8	8.288
67	749.2	8.133
68	751.8	6.135
69	759.2	9.265
70	762.8	4.701
71	767.6	7.471
72	771.0	6.366
73	773.6	8.134
74	778.4	7.890

Data Points
nm	Data
480.0	20.93
481.0	23.39
482.0	31.02
483.0	29.72
484.0	29.12
485.0	31.07
486.0	46.05
487.0	50.16
488.0	47.40
489.0	52.48
490.0	60.64
491.0	68.25
492.0	87.57
493.0	102.8
494.0	117.7
495.0	129.6
496.0	139.9
497.0	152.9
498.0	193.5
499.0	204.1
500.0	212.3
501.0	237.1
502.0	260.7
503.0	271.3
504.0	280.9
505.0	303.2
506.0	308.9
507.0	298.7
508.0	307.0
509.0	314.8
510.0	323.0
511.0	316.0
512.0	311.0
513.0	332.0
514.0	318.5
515.0	325.7
516.0	310.9
517.0	316.1
518.0	306.2
519.0	318.6
520.0	317.4
521.0	320.6
522.0	298.5
523.0	277.1
524.0	274.5
525.0	275.5
526.0	279.6
527.0	264.9
528.0	267.4
529.0	260.0
530.0	253.0
531.0	240.4
532.0	235.3
533.0	219.6
534.0	236.4
535.0	233.8
536.0	226.2
537.0	218.0
538.0	211.9
539.0	206.2
540.0	202.5
541.0	211.5
542.0	185.7
543.0	172.5
544.0	170.6
545.0	183.1
546.0	172.0
547.0	153.2
548.0	160.2
549.0	149.4
550.0	144.1
551.0	151.3
552.0	139.9
553.0	140.5
554.0	129.4
555.0	123.1
556.0	117.8
557.0	109.5
558.0	110.3
559.0	110.5
560.0	100.2
561.0	100.9
562.0	99.25
563.0	98.10
564.0	85.43
565.0	85.49
566.0	83.91
567.0	90.61
568.0	81.81
569.0	77.74
570.0	69.33
571.0	66.78
572.0	75.60
573.0	66.52
574.0	62.60
575.0	59.03
576.0	68.65
577.0	67.70
578.0	54.25
579.0	55.11
580.0	52.99
581.0	46.47
582.0	39.63
583.0	57.62
584.0	43.23
585.0	42.49
586.0	47.23
587.0	47.20
588.0	45.19
589.0	42.07
590.0	36.86
591.0	44.55
592.0	36.26
593.0	35.45
594.0	37.42
595.0	33.81
596.0	39.54
597.0	34.80
598.0	35.69
599.0	28.72
600.0	27.08
601.0	30.16
602.0	29.08
603.0	25.85
604.0	28.64
605.0	29.80
606.0	26.58
607.0	24.20
608.0	22.91
609.0	19.13
610.0	21.30
611.0	24.85
612.0	28.69
613.0	24.05
614.0	18.99
615.0	19.35
616.0	21.13
617.0	20.52
618.0	17.39
619.0	16.86
620.0	12.97
621.0	13.54
622.0	19.23
623.0	16.23
624.0	19.20
625.0	18.41
626.0	18.36
627.0	16.26
628.0	14.21
629.0	15.30
630.0	14.22
631.0	15.13
632.0	11.16
633.0	14.56
634.0	17.15
635.0	12.96
636.0	12.94
637.0	16.10
638.0	11.04
639.0	16.24
640.0	13.57
641.0	11.12
642.0	12.51
643.0	13.78
644.0	8.946
645.0	10.93
646.0	14.71
647.0	11.12
648.0	13.98
649.0	10.31
650.0	9.328
651.0	8.762
652.0	13.01
653.0	12.87
654.0	14.24
655.0	13.16
656.0	17.58
657.0	14.82
658.0	11.30
659.0	10.87
660.0	11.66
661.0	14.70
662.0	13.64
663.0	14.50
664.0	8.794
665.0	9.540
666.0	9.878
667.0	11.31
668.0	14.36
669.0	12.73
670.0	12.37
671.0	10.70
672.0	10.91
673.0	8.049
674.0	14.72
675.0	11.44
676.0	13.09
677.0	10.90
678.0	6.499
679.0	13.62
680.0	6.980
681.0	14.96
682.0	9.630
683.0	9.252
684.0	12.45
685.0	9.949
686.0	12.32
687.0	11.93
688.0	11.24
689.0	10.78
690.0	8.962
691.0	12.55
692.0	11.93
693.0	9.054
694.0	10.80
695.0	11.65
696.0	9.882
697.0	11.75
698.0	12.31
699.0	9.537
700.0	9.847
701.0	8.023
702.0	7.897
703.0	7.178
704.0	8.351
705.0	7.824
706.0	9.603
707.0	10.17
708.0	10.94
709.0	10.91
710.0	7.722
711.0	9.307
712.0	6.400
713.0	8.530
714.0	8.232
715.0	8.204
716.0	6.100
717.0	8.214
718.0	12.48
719.0	12.92
720.0	8.859
721.0	8.494
722.0	9.213
723.0	9.211
724.0	10.65
725.0	11.08
726.0	7.227
727.0	13.07
728.0	9.901
729.0	12.48
730.0	11.05
731.0	9.476
732.0	7.957
733.0	15.38
734.0	11.39
735.0	9.079
736.0	13.22
737.0	9.449
738.0	7.073
739.0	8.268
740.0	11.27
741.0	7.453
742.0	11.04
743.0	11.46
744.0	12.95
745.0	12.49
746.0	7.452
747.0	9.593
748.0	13.09
749.0	8.801
750.0	11.45
751.0	9.832
752.0	6.866
753.0	8.394
754.0	7.395
755.0	12.97
756.0	14.69
757.0	12.19
758.0	13.17
759.0	10.40
760.0	10.75
761.0	9.267
762.0	7.201
763.0	7.848
764.0	9.664
765.0	14.53
766.0	8.680
767.0	8.394
768.0	9.835
769.0	9.743
770.0	10.89
771.0	6.366
772.0	12.02
773.0	9.268
774.0	10.07
775.0	11.16
776.0	10.18
777.0	9.434
778.0	8.478
779.0	11.95
780.0	13.04

Sample:	'wa-10(EM)
File name:	60.FDS
Run Date:	'18:16:43, 07/11/2024
Operator:	WXH
Comment:	'

Instrument
Model:	F-4600 FL Spectrophotometer
Serial Number:	3080-002
ROM Version:	5J24000 02

Instrument Parameters
Measurement type:	Wavelength scan
Scan mode:	Emission
Data mode:	Fluorescence
EX WL:	460.0 nm
EM  Start WL:	480.0 nm
EM  End WL:	780.0 nm
Scan speed:	1200 nm/min
Delay:	0.0 s
EX Slit:	2.5 nm
EM Slit:	2.5 nm
PMT Voltage:	600 V
Response:	Auto 
Corrected spectra:	Off
Shutter control:	On

Peak integration
Integration method:	Rectangular
Sensitivity:	1
Threshold:	1.000

Peaks
No.	Valley(nm)	Valley(Data)
1	489.4	48.09
2	508.8	307.6
3	512.2	302.3
4	514.8	310.6
5	518.6	295.0
6	522.6	278.3
7	527.6	244.8
8	531.2	242.6
9	533.2	229.5
10	543.4	164.3
11	547.0	152.6
12	555.0	116.6
13	557.4	100.4
14	559.4	103.1
15	563.2	76.15
16	569.6	58.49
17	573.4	60.51
18	578.8	47.47
19	583.2	37.73
20	587.0	36.66
21	592.2	35.02
22	595.0	28.32
23	596.8	30.40
24	600.2	22.90
25	603.0	22.25
26	612.0	20.95
27	619.2	18.81
28	622.4	13.39
29	624.2	13.92
30	626.4	15.10
31	629.2	12.46
32	632.6	10.60
33	635.2	10.20
34	639.8	8.338
35	642.4	7.241
36	650.2	10.11
37	653.2	10.85
38	654.4	10.14
39	658.0	7.974
40	663.6	8.035
41	667.0	7.611
42	669.4	9.795
43	673.2	7.466
44	675.6	6.905
45	680.6	7.844
46	684.0	10.22
47	686.8	9.221
48	688.8	6.301
49	692.4	8.897
50	696.8	7.265
51	699.2	6.377
52	702.0	8.183
53	703.8	7.334
54	706.8	6.905
55	709.0	6.626
56	711.6	8.229
57	715.2	4.643
58	717.4	7.614
59	722.0	7.717
60	726.0	7.123
61	729.8	7.684
62	732.4	7.219
63	734.6	8.349
64	737.6	7.513
65	741.0	7.614
66	743.2	9.493
67	745.4	8.546
68	749.6	7.752
69	752.4	10.90
70	756.4	7.188
71	760.4	7.759
72	763.8	8.697
73	766.6	6.936
74	772.6	3.846
75	777.2	7.258
76	780.0	9.279

Data Points
nm	Data
480.0	26.09
481.0	23.03
482.0	23.19
483.0	25.35
484.0	31.96
485.0	35.11
486.0	36.71
487.0	39.34
488.0	54.49
489.0	51.60
490.0	54.63
491.0	72.86
492.0	87.11
493.0	89.83
494.0	105.6
495.0	127.5
496.0	137.7
497.0	170.2
498.0	181.9
499.0	203.0
500.0	211.7
501.0	213.2
502.0	244.3
503.0	271.6
504.0	270.2
505.0	275.4
506.0	288.0
507.0	304.1
508.0	314.6
509.0	311.9
510.0	330.3
511.0	306.9
512.0	314.1
513.0	320.1
514.0	327.1
515.0	316.8
516.0	325.5
517.0	319.2
518.0	313.9
519.0	297.2
520.0	325.7
521.0	288.1
522.0	295.6
523.0	281.2
524.0	297.1
525.0	285.4
526.0	273.7
527.0	250.6
528.0	254.8
529.0	256.6
530.0	248.5
531.0	245.3
532.0	250.8
533.0	235.9
534.0	235.2
535.0	222.8
536.0	217.2
537.0	204.3
538.0	206.1
539.0	213.7
540.0	208.0
541.0	198.9
542.0	194.1
543.0	180.5
544.0	171.2
545.0	166.0
546.0	161.4
547.0	152.6
548.0	162.6
549.0	140.7
550.0	143.6
551.0	138.8
552.0	129.0
553.0	126.0
554.0	123.5
555.0	116.6
556.0	117.5
557.0	110.8
558.0	115.1
559.0	112.0
560.0	107.2
561.0	103.2
562.0	93.03
563.0	84.94
564.0	87.01
565.0	92.11
566.0	91.86
567.0	84.76
568.0	79.13
569.0	70.57
570.0	64.72
571.0	67.75
572.0	71.03
573.0	64.88
574.0	63.24
575.0	66.04
576.0	62.50
577.0	57.22
578.0	52.09
579.0	54.72
580.0	53.22
581.0	52.90
582.0	45.49
583.0	41.49
584.0	44.07
585.0	42.49
586.0	41.12
587.0	36.66
588.0	40.81
589.0	38.33
590.0	40.88
591.0	37.87
592.0	35.43
593.0	40.21
594.0	34.77
595.0	28.32
596.0	39.69
597.0	35.19
598.0	36.02
599.0	27.71
600.0	26.14
601.0	34.16
602.0	26.72
603.0	22.25
604.0	27.55
605.0	27.77
606.0	26.57
607.0	28.28
608.0	30.91
609.0	24.90
610.0	24.20
611.0	22.96
612.0	20.95
613.0	23.71
614.0	25.55
615.0	25.77
616.0	22.41
617.0	22.33
618.0	20.76
619.0	19.58
620.0	19.59
621.0	19.03
622.0	14.69
623.0	15.31
624.0	13.97
625.0	18.90
626.0	16.68
627.0	17.97
628.0	19.76
629.0	13.59
630.0	14.19
631.0	16.58
632.0	15.77
633.0	11.30
634.0	12.71
635.0	11.24
636.0	13.99
637.0	13.83
638.0	12.60
639.0	9.075
640.0	10.87
641.0	12.20
642.0	9.044
643.0	11.94
644.0	13.34
645.0	16.50
646.0	14.17
647.0	16.11
648.0	9.308
649.0	11.15
650.0	11.76
651.0	13.33
652.0	13.96
653.0	11.74
654.0	12.60
655.0	14.47
656.0	11.65
657.0	9.252
658.0	7.974
659.0	13.50
660.0	11.06
661.0	11.60
662.0	11.72
663.0	13.61
664.0	10.47
665.0	10.60
666.0	11.23
667.0	7.611
668.0	8.366
669.0	11.88
670.0	11.36
671.0	10.93
672.0	11.58
673.0	7.990
674.0	10.92
675.0	13.68
676.0	8.389
677.0	11.23
678.0	11.07
679.0	12.18
680.0	12.01
681.0	9.033
682.0	11.33
683.0	14.45
684.0	10.22
685.0	13.92
686.0	11.75
687.0	10.88
688.0	11.46
689.0	7.240
690.0	14.85
691.0	12.28
692.0	11.99
693.0	11.71
694.0	10.58
695.0	9.806
696.0	8.781
697.0	12.20
698.0	10.80
699.0	8.497
700.0	12.64
701.0	13.63
702.0	8.183
703.0	11.89
704.0	8.951
705.0	10.68
706.0	8.588
707.0	10.50
708.0	7.091
709.0	6.626
710.0	10.51
711.0	8.561
712.0	11.65
713.0	13.47
714.0	14.18
715.0	5.222
716.0	9.735
717.0	9.636
718.0	9.002
719.0	11.35
720.0	10.76
721.0	11.63
722.0	7.717
723.0	13.21
724.0	10.49
725.0	9.674
726.0	7.123
727.0	11.25
728.0	10.04
729.0	11.34
730.0	11.20
731.0	9.785
732.0	8.950
733.0	12.21
734.0	8.906
735.0	11.25
736.0	11.72
737.0	9.562
738.0	10.64
739.0	10.15
740.0	12.12
741.0	7.614
742.0	9.518
743.0	9.510
744.0	11.78
745.0	10.39
746.0	10.26
747.0	10.98
748.0	13.25
749.0	9.200
750.0	8.211
751.0	12.30
752.0	11.68
753.0	11.97
754.0	14.68
755.0	11.23
756.0	9.509
757.0	9.474
758.0	9.737
759.0	10.30
760.0	9.442
761.0	11.39
762.0	11.68
763.0	9.496
764.0	13.00
765.0	13.01
766.0	11.27
767.0	9.729
768.0	16.99
769.0	11.35
770.0	9.928
771.0	9.556
772.0	6.021
773.0	4.963
774.0	9.130
775.0	11.17
776.0	11.73
777.0	8.113
778.0	13.24
779.0	10.52
780.0	9.279

Sample:	'wa-11(EM)
File name:	60.FDS
Run Date:	'18:17:13, 07/11/2024
Operator:	WXH
Comment:	'

Instrument
Model:	F-4600 FL Spectrophotometer
Serial Number:	3080-002
ROM Version:	5J24000 02

Instrument Parameters
Measurement type:	Wavelength scan
Scan mode:	Emission
Data mode:	Fluorescence
EX WL:	460.0 nm
EM  Start WL:	480.0 nm
EM  End WL:	780.0 nm
Scan speed:	1200 nm/min
Delay:	0.0 s
EX Slit:	2.5 nm
EM Slit:	2.5 nm
PMT Voltage:	600 V
Response:	Auto 
Corrected spectra:	Off
Shutter control:	On

Peak integration
Integration method:	Rectangular
Sensitivity:	1
Threshold:	1.000

Peaks
No.	Valley(nm)	Valley(Data)
1	509.4	295.4
2	511.6	294.4
3	517.2	285.0
4	526.8	253.1
5	530.4	237.9
6	532.2	241.1
7	542.4	169.9
8	553.6	120.6
9	558.2	99.22
10	562.6	98.07
11	565.6	81.11
12	567.6	68.42
13	570.6	63.05
14	573.2	58.11
15	577.0	51.27
16	582.0	45.21
17	586.8	41.71
18	591.4	32.14
19	601.0	22.93
20	604.0	21.37
21	606.0	20.71
22	608.6	18.48
23	611.2	22.44
24	615.4	15.33
25	619.0	15.87
26	621.2	15.47
27	623.2	13.85
28	626.0	12.83
29	628.6	15.59
30	630.4	12.10
31	632.0	11.83
32	634.8	11.29
33	638.2	11.04
34	641.8	11.56
35	644.2	8.524
36	649.6	9.476
37	653.6	9.334
38	657.8	8.849
39	659.2	8.134
40	661.8	9.963
41	665.6	6.953
42	669.4	6.428
43	672.8	6.279
44	676.6	7.381
45	680.4	9.801
46	684.2	5.882
47	687.2	8.114
48	690.8	8.227
49	699.2	7.408
50	702.4	8.633
51	704.2	7.411
52	706.8	8.688
53	710.4	7.298
54	714.4	7.304
55	717.4	6.930
56	720.6	7.562
57	722.2	7.645
58	730.6	7.390
59	732.0	6.057
60	735.4	8.135
61	737.6	6.984
62	741.2	7.649
63	744.0	9.509
64	747.4	4.229
65	753.0	8.960
66	762.6	5.292
67	768.0	6.987
68	773.2	6.543
69	776.6	7.573
70	780.0	6.823

Data Points
nm	Data
480.0	17.47
481.0	16.70
482.0	27.49
483.0	28.19
484.0	30.80
485.0	32.13
486.0	40.26
487.0	43.03
488.0	46.82
489.0	61.98
490.0	65.09
491.0	74.29
492.0	83.59
493.0	104.7
494.0	109.9
495.0	137.2
496.0	145.9
497.0	159.7
498.0	172.1
499.0	199.9
500.0	213.9
501.0	240.0
502.0	250.1
503.0	271.8
504.0	265.0
505.0	271.0
506.0	287.2
507.0	302.0
508.0	313.5
509.0	310.1
510.0	306.0
511.0	314.4
512.0	332.4
513.0	328.8
514.0	325.7
515.0	331.4
516.0	293.7
517.0	293.5
518.0	289.8
519.0	295.3
520.0	294.0
521.0	297.5
522.0	306.5
523.0	290.0
524.0	283.3
525.0	286.2
526.0	281.8
527.0	259.3
528.0	268.7
529.0	265.0
530.0	243.2
531.0	255.5
532.0	249.8
533.0	257.5
534.0	250.8
535.0	250.4
536.0	220.0
537.0	213.8
538.0	196.6
539.0	200.2
540.0	196.9
541.0	198.2
542.0	181.8
543.0	182.0
544.0	184.9
545.0	176.4
546.0	170.7
547.0	174.9
548.0	154.8
549.0	163.6
550.0	151.3
551.0	144.9
552.0	146.6
553.0	126.8
554.0	128.6
555.0	128.0
556.0	120.4
557.0	117.4
558.0	100.4
559.0	101.8
560.0	106.9
561.0	102.1
562.0	100.8
563.0	102.4
564.0	93.83
565.0	81.20
566.0	83.47
567.0	85.82
568.0	80.92
569.0	78.76
570.0	78.11
571.0	72.68
572.0	71.50
573.0	61.54
574.0	62.07
575.0	57.45
576.0	58.24
577.0	51.27
578.0	61.49
579.0	50.95
580.0	48.59
581.0	50.31
582.0	45.21
583.0	47.07
584.0	47.79
585.0	54.45
586.0	48.82
587.0	42.84
588.0	43.95
589.0	50.80
590.0	35.79
591.0	38.83
592.0	36.75
593.0	37.93
594.0	37.39
595.0	38.44
596.0	36.98
597.0	29.62
598.0	30.11
599.0	27.94
600.0	24.79
601.0	22.93
602.0	27.77
603.0	32.67
604.0	21.37
605.0	27.07
606.0	20.71
607.0	24.61
608.0	20.86
609.0	23.22
610.0	25.18
611.0	22.78
612.0	24.90
613.0	20.80
614.0	17.14
615.0	18.23
616.0	17.05
617.0	23.05
618.0	21.18
619.0	15.87
620.0	22.28
621.0	18.99
622.0	19.14
623.0	16.44
624.0	14.52
625.0	19.26
626.0	12.83
627.0	24.10
628.0	20.30
629.0	16.64
630.0	15.21
631.0	13.40
632.0	11.83
633.0	15.02
634.0	19.36
635.0	11.88
636.0	14.88
637.0	12.54
638.0	11.51
639.0	12.89
640.0	14.98
641.0	13.82
642.0	13.00
643.0	11.67
644.0	11.06
645.0	16.85
646.0	13.97
647.0	15.69
648.0	11.41
649.0	11.68
650.0	12.28
651.0	13.71
652.0	9.490
653.0	11.72
654.0	10.28
655.0	12.76
656.0	13.01
657.0	9.883
658.0	12.30
659.0	10.56
660.0	9.981
661.0	11.66
662.0	13.69
663.0	15.29
664.0	9.924
665.0	7.992
666.0	6.004
667.0	12.06
668.0	9.762
669.0	8.778
670.0	9.319
671.0	9.674
672.0	10.57
673.0	6.286
674.0	10.07
675.0	14.25
676.0	8.535
677.0	7.977
678.0	11.13
679.0	13.85
680.0	11.96
681.0	10.29
682.0	11.76
683.0	12.88
684.0	6.858
685.0	11.75
686.0	11.72
687.0	9.966
688.0	13.68
689.0	12.73
690.0	10.54
691.0	11.61
692.0	11.25
693.0	11.51
694.0	12.90
695.0	14.81
696.0	14.15
697.0	11.78
698.0	9.881
699.0	7.773
700.0	9.490
701.0	11.69
702.0	11.32
703.0	12.44
704.0	8.156
705.0	10.47
706.0	10.19
707.0	8.871
708.0	10.30
709.0	11.43
710.0	8.124
711.0	12.51
712.0	17.07
713.0	11.07
714.0	8.197
715.0	8.385
716.0	11.35
717.0	6.958
718.0	11.12
719.0	12.40
720.0	9.510
721.0	8.419
722.0	7.728
723.0	11.21
724.0	11.13
725.0	10.11
726.0	10.33
727.0	11.08
728.0	8.563
729.0	9.410
730.0	10.22
731.0	8.247
732.0	6.057
733.0	10.13
734.0	8.134
735.0	8.800
736.0	11.69
737.0	12.32
738.0	8.795
739.0	9.212
740.0	13.69
741.0	7.783
742.0	13.71
743.0	11.94
744.0	9.509
745.0	9.860
746.0	12.20
747.0	7.061
748.0	6.659
749.0	5.069
750.0	9.943
751.0	10.26
752.0	11.84
753.0	8.960
754.0	11.43
755.0	11.50
756.0	13.06
757.0	11.93
758.0	13.55
759.0	12.87
760.0	11.97
761.0	7.854
762.0	7.215
763.0	6.370
764.0	10.60
765.0	11.56
766.0	12.84
767.0	10.73
768.0	6.987
769.0	10.49
770.0	11.19
771.0	13.20
772.0	7.027
773.0	8.428
774.0	11.43
775.0	12.74
776.0	8.815
777.0	11.07
778.0	11.53
779.0	12.26
780.0	6.823

Sample:	'wa-12(EM)
File name:	60.FDS
Run Date:	'18:17:43, 07/11/2024
Operator:	WXH
Comment:	'

Instrument
Model:	F-4600 FL Spectrophotometer
Serial Number:	3080-002
ROM Version:	5J24000 02

Instrument Parameters
Measurement type:	Wavelength scan
Scan mode:	Emission
Data mode:	Fluorescence
EX WL:	460.0 nm
EM  Start WL:	480.0 nm
EM  End WL:	780.0 nm
Scan speed:	1200 nm/min
Delay:	0.0 s
EX Slit:	2.5 nm
EM Slit:	2.5 nm
PMT Voltage:	600 V
Response:	Auto 
Corrected spectra:	Off
Shutter control:	On

Peak integration
Integration method:	Rectangular
Sensitivity:	1
Threshold:	1.000

Peaks
No.	Valley(nm)	Valley(Data)
1	517.8	293.1
2	521.8	287.8
3	524.6	271.7
4	527.8	247.0
5	538.2	201.6
6	543.0	162.3
7	552.8	117.9
8	557.8	107.3
9	564.2	79.03
10	569.2	80.18
11	572.0	61.10
12	578.8	46.33
13	584.2	40.41
14	588.4	34.30
15	590.8	32.72
16	593.0	31.86
17	598.2	27.33
18	603.6	25.59
19	607.8	20.35
20	610.8	18.78
21	614.8	18.41
22	617.4	17.42
23	620.8	17.21
24	623.2	16.43
25	628.6	12.00
26	635.8	12.45
27	639.8	8.843
28	646.8	9.229
29	651.2	9.122
30	652.8	10.87
31	654.4	9.173
32	658.8	9.841
33	663.2	8.615
34	666.0	6.160
35	668.8	7.001
36	675.2	9.873
37	678.8	5.871
38	685.2	7.269
39	689.0	8.156
40	692.2	9.860
41	693.6	10.03
42	697.2	6.497
43	701.4	8.421
44	704.6	6.494
45	708.0	6.246
46	711.0	8.344
47	713.6	7.012
48	717.0	5.667
49	719.4	9.418
50	722.4	7.677
51	727.2	7.022
52	729.4	6.694
53	731.4	5.469
54	735.0	9.215
55	738.4	7.615
56	744.4	8.721
57	752.2	5.855
58	754.2	6.303
59	756.8	8.394
60	759.8	7.224
61	764.6	6.938
62	767.6	9.447
63	773.8	6.702
64	778.4	9.231

Data Points
nm	Data
480.0	29.83
481.0	17.58
482.0	17.46
483.0	24.89
484.0	31.45
485.0	28.24
486.0	35.84
487.0	38.64
488.0	49.63
489.0	50.64
490.0	55.66
491.0	78.31
492.0	83.09
493.0	93.44
494.0	107.0
495.0	125.5
496.0	145.7
497.0	149.7
498.0	176.3
499.0	205.1
500.0	207.6
501.0	222.0
502.0	251.5
503.0	273.0
504.0	265.5
505.0	286.9
506.0	301.9
507.0	307.5
508.0	306.0
509.0	316.5
510.0	324.5
511.0	330.9
512.0	334.0
513.0	322.1
514.0	317.8
515.0	313.7
516.0	304.7
517.0	311.5
518.0	302.2
519.0	296.4
520.0	307.2
521.0	289.8
522.0	305.3
523.0	283.5
524.0	284.9
525.0	284.5
526.0	279.2
527.0	266.2
528.0	248.7
529.0	259.3
530.0	256.9
531.0	239.3
532.0	238.1
533.0	248.1
534.0	225.5
535.0	227.5
536.0	222.5
537.0	221.7
538.0	206.7
539.0	205.1
540.0	206.4
541.0	206.1
542.0	173.5
543.0	162.3
544.0	178.2
545.0	160.0
546.0	159.5
547.0	162.7
548.0	152.3
549.0	140.6
550.0	149.8
551.0	144.3
552.0	131.4
553.0	124.2
554.0	126.9
555.0	126.6
556.0	118.2
557.0	110.2
558.0	111.8
559.0	105.9
560.0	102.4
561.0	93.70
562.0	93.65
563.0	86.66
564.0	88.21
565.0	94.58
566.0	95.35
567.0	81.16
568.0	86.31
569.0	80.77
570.0	90.24
571.0	72.18
572.0	61.10
573.0	70.06
574.0	65.93
575.0	76.84
576.0	63.76
577.0	58.47
578.0	55.71
579.0	52.93
580.0	54.97
581.0	49.65
582.0	47.93
583.0	43.08
584.0	40.71
585.0	50.47
586.0	48.85
587.0	48.06
588.0	43.59
589.0	41.88
590.0	42.76
591.0	34.70
592.0	41.39
593.0	31.86
594.0	37.00
595.0	33.79
596.0	38.34
597.0	33.84
598.0	30.52
599.0	31.25
600.0	39.45
601.0	35.67
602.0	29.86
603.0	30.99
604.0	26.28
605.0	25.74
606.0	23.93
607.0	23.99
608.0	20.46
609.0	21.63
610.0	23.01
611.0	22.76
612.0	22.09
613.0	22.32
614.0	21.11
615.0	18.79
616.0	20.80
617.0	19.02
618.0	19.11
619.0	23.72
620.0	20.50
621.0	18.09
622.0	22.59
623.0	17.38
624.0	19.53
625.0	20.60
626.0	19.19
627.0	16.86
628.0	12.95
629.0	14.79
630.0	15.89
631.0	13.57
632.0	21.41
633.0	22.19
634.0	14.75
635.0	15.76
636.0	12.86
637.0	18.14
638.0	13.40
639.0	12.19
640.0	9.924
641.0	14.16
642.0	13.09
643.0	15.78
644.0	13.53
645.0	13.36
646.0	14.03
647.0	11.14
648.0	12.74
649.0	15.77
650.0	12.03
651.0	11.57
652.0	14.40
653.0	11.49
654.0	12.67
655.0	11.02
656.0	13.90
657.0	11.11
658.0	13.51
659.0	10.84
660.0	14.18
661.0	12.19
662.0	12.41
663.0	9.523
664.0	10.37
665.0	10.32
666.0	6.160
667.0	11.11
668.0	11.58
669.0	8.469
670.0	9.133
671.0	9.610
672.0	11.95
673.0	14.66
674.0	11.16
675.0	10.42
676.0	11.32
677.0	9.587
678.0	9.998
679.0	10.75
680.0	9.062
681.0	10.27
682.0	12.00
683.0	15.94
684.0	12.57
685.0	9.930
686.0	13.49
687.0	9.906
688.0	8.350
689.0	8.156
690.0	10.80
691.0	11.27
692.0	10.83
693.0	15.08
694.0	10.69
695.0	11.72
696.0	8.569
697.0	7.217
698.0	7.411
699.0	12.65
700.0	14.20
701.0	10.42
702.0	11.83
703.0	11.97
704.0	9.846
705.0	7.332
706.0	10.73
707.0	9.695
708.0	6.246
709.0	11.53
710.0	10.08
711.0	8.344
712.0	10.98
713.0	12.31
714.0	8.976
715.0	12.33
716.0	9.723
717.0	5.667
718.0	8.123
719.0	11.82
720.0	12.27
721.0	12.03
722.0	11.93
723.0	10.66
724.0	10.59
725.0	9.310
726.0	7.676
727.0	6.891
728.0	7.778
729.0	8.485
730.0	8.125
731.0	7.438
732.0	7.699
733.0	7.969
734.0	11.95
735.0	9.215
736.0	11.22
737.0	9.761
738.0	8.958
739.0	7.693
740.0	10.71
741.0	8.334
742.0	8.655
743.0	10.59
744.0	13.94
745.0	10.55
746.0	12.53
747.0	11.42
748.0	12.26
749.0	12.71
750.0	6.937
751.0	8.307
752.0	6.375
753.0	11.14
754.0	6.746
755.0	7.173
756.0	11.54
757.0	10.46
758.0	9.616
759.0	10.01
760.0	8.514
761.0	7.739
762.0	10.17
763.0	8.365
764.0	6.647
765.0	7.967
766.0	12.01
767.0	10.02
768.0	11.70
769.0	10.39
770.0	10.45
771.0	11.52
772.0	8.468
773.0	10.63
774.0	9.708
775.0	10.06
776.0	11.42
777.0	9.904
778.0	10.54
779.0	9.415
780.0	11.08

Sample:	'wa-13(EM)
File name:	60.FDS
Run Date:	'18:18:13, 07/11/2024
Operator:	WXH
Comment:	'

Instrument
Model:	F-4600 FL Spectrophotometer
Serial Number:	3080-002
ROM Version:	5J24000 02

Instrument Parameters
Measurement type:	Wavelength scan
Scan mode:	Emission
Data mode:	Fluorescence
EX WL:	460.0 nm
EM  Start WL:	480.0 nm
EM  End WL:	780.0 nm
Scan speed:	1200 nm/min
Delay:	0.0 s
EX Slit:	2.5 nm
EM Slit:	2.5 nm
PMT Voltage:	600 V
Response:	Auto 
Corrected spectra:	Off
Shutter control:	On

Peak integration
Integration method:	Rectangular
Sensitivity:	1
Threshold:	1.000

Peaks
No.	Valley(nm)	Valley(Data)
1	483.0	20.06
2	508.2	308.1
3	514.4	305.3
4	515.6	304.1
5	518.8	291.3
6	521.0	293.8
7	526.2	268.2
8	529.6	242.9
9	537.6	188.4
10	539.8	189.6
11	541.4	192.3
12	553.0	120.4
13	557.2	106.2
14	558.4	106.3
15	560.2	101.0
16	563.8	86.02
17	566.6	71.82
18	568.8	66.56
19	572.0	61.63
20	575.6	57.55
21	579.0	51.10
22	581.4	50.30
23	586.4	40.59
24	592.2	33.22
25	595.0	25.21
26	597.2	33.56
27	601.4	27.76
28	604.4	21.72
29	606.2	20.99
30	609.0	18.32
31	612.0	18.17
32	618.4	14.81
33	622.4	15.54
34	625.8	13.27
35	629.4	11.70
36	635.2	11.84
37	638.6	11.88
38	641.6	9.348
39	645.2	8.227
40	648.0	10.40
41	652.2	10.32
42	654.2	9.177
43	657.4	9.665
44	660.2	7.902
45	664.2	7.289
46	667.2	9.855
47	669.4	9.888
48	673.4	8.638
49	679.4	7.427
50	681.6	6.853
51	685.2	6.207
52	689.2	8.105
53	693.8	7.902
54	696.0	9.128
55	699.4	8.706
56	703.2	7.795
57	706.2	7.110
58	709.4	9.902
59	712.4	10.09
60	715.0	9.525
61	717.0	9.089
62	719.2	7.982
63	722.2	7.432
64	728.2	8.256
65	732.4	9.450
66	733.6	7.980
67	736.6	6.663
68	739.6	6.392
69	744.2	6.498
70	746.6	8.243
71	751.4	7.144
72	756.2	6.368
73	760.4	8.021
74	762.6	7.548
75	765.2	7.452
76	768.4	8.911
77	771.2	9.299
78	773.4	7.734
79	777.0	7.231
80	780.0	7.536

Data Points
nm	Data
480.0	21.11
481.0	23.93
482.0	21.50
483.0	20.06
484.0	29.57
485.0	28.44
486.0	36.98
487.0	38.70
488.0	48.25
489.0	54.93
490.0	60.41
491.0	72.31
492.0	75.17
493.0	93.51
494.0	109.3
495.0	128.9
496.0	131.2
497.0	145.0
498.0	169.1
499.0	184.7
500.0	212.8
501.0	213.4
502.0	236.9
503.0	266.8
504.0	273.9
505.0	300.8
506.0	296.2
507.0	297.0
508.0	314.1
509.0	315.4
510.0	339.6
511.0	327.2
512.0	320.5
513.0	325.0
514.0	311.4
515.0	324.9
516.0	312.7
517.0	320.9
518.0	305.9
519.0	297.5
520.0	315.2
521.0	293.8
522.0	306.4
523.0	289.3
524.0	274.7
525.0	272.3
526.0	271.5
527.0	277.2
528.0	257.2
529.0	252.2
530.0	260.1
531.0	240.9
532.0	244.8
533.0	236.7
534.0	228.9
535.0	222.7
536.0	211.0
537.0	209.9
538.0	201.3
539.0	210.9
540.0	202.6
541.0	194.0
542.0	205.7
543.0	179.0
544.0	181.9
545.0	172.5
546.0	164.5
547.0	155.0
548.0	153.8
549.0	150.8
550.0	153.0
551.0	131.5
552.0	129.3
553.0	120.4
554.0	125.8
555.0	133.0
556.0	119.9
557.0	106.8
558.0	113.1
559.0	108.6
560.0	108.9
561.0	103.5
562.0	95.38
563.0	97.71
564.0	89.54
565.0	86.19
566.0	85.23
567.0	78.60
568.0	79.59
569.0	70.42
570.0	83.84
571.0	81.19
572.0	61.63
573.0	69.62
574.0	67.51
575.0	66.00
576.0	63.35
577.0	68.28
578.0	58.63
579.0	51.10
580.0	56.10
581.0	58.45
582.0	52.35
583.0	56.92
584.0	46.13
585.0	47.52
586.0	42.15
587.0	44.56
588.0	43.66
589.0	46.01
590.0	39.83
591.0	40.06
592.0	33.47
593.0	37.69
594.0	39.36
595.0	25.21
596.0	34.05
597.0	36.36
598.0	36.27
599.0	33.21
600.0	28.46
601.0	31.23
602.0	29.99
603.0	30.33
604.0	21.94
605.0	22.46
606.0	21.40
607.0	28.69
608.0	27.37
609.0	18.32
610.0	26.58
611.0	23.21
612.0	18.17
613.0	23.12
614.0	22.86
615.0	22.06
616.0	21.41
617.0	20.18
618.0	18.98
619.0	20.49
620.0	25.58
621.0	23.83
622.0	19.39
623.0	17.23
624.0	21.14
625.0	15.49
626.0	14.12
627.0	18.61
628.0	11.24
629.0	12.62
630.0	16.19
631.0	17.50
632.0	21.10
633.0	18.21
634.0	19.45
635.0	12.79
636.0	17.84
637.0	14.42
638.0	12.73
639.0	12.30
640.0	15.70
641.0	14.76
642.0	13.88
643.0	14.98
644.0	13.12
645.0	8.652
646.0	10.21
647.0	10.69
648.0	10.40
649.0	12.65
650.0	12.24
651.0	12.99
652.0	11.18
653.0	12.18
654.0	11.51
655.0	10.42
656.0	12.18
657.0	12.03
658.0	14.70
659.0	14.16
660.0	9.632
661.0	11.14
662.0	15.63
663.0	11.63
664.0	8.733
665.0	12.30
666.0	14.68
667.0	10.45
668.0	14.43
669.0	12.12
670.0	11.07
671.0	13.79
672.0	16.78
673.0	11.31
674.0	12.24
675.0	15.79
676.0	14.70
677.0	11.30
678.0	10.43
679.0	10.82
680.0	12.79
681.0	9.522
682.0	8.923
683.0	11.14
684.0	11.88
685.0	9.060
686.0	8.745
687.0	10.51
688.0	12.44
689.0	10.44
690.0	12.36
691.0	10.49
692.0	15.46
693.0	11.17
694.0	11.00
695.0	11.03
696.0	9.128
697.0	12.39
698.0	12.74
699.0	12.25
700.0	11.83
701.0	10.98
702.0	11.82
703.0	9.054
704.0	9.179
705.0	7.912
706.0	7.268
707.0	11.43
708.0	11.25
709.0	11.70
710.0	11.70
711.0	10.19
712.0	11.91
713.0	11.58
714.0	10.61
715.0	9.525
716.0	10.73
717.0	9.089
718.0	11.26
719.0	10.77
720.0	9.638
721.0	9.743
722.0	10.03
723.0	10.41
724.0	11.34
725.0	13.13
726.0	12.21
727.0	10.82
728.0	8.605
729.0	10.95
730.0	12.00
731.0	11.82
732.0	10.94
733.0	11.76
734.0	11.44
735.0	8.139
736.0	10.08
737.0	12.15
738.0	9.476
739.0	8.859
740.0	8.561
741.0	10.09
742.0	11.80
743.0	9.685
744.0	8.082
745.0	12.28
746.0	12.06
747.0	8.933
748.0	13.06
749.0	12.83
750.0	14.25
751.0	11.43
752.0	7.380
753.0	10.72
754.0	7.963
755.0	10.83
756.0	7.191
757.0	7.815
758.0	7.808
759.0	8.837
760.0	9.484
761.0	8.564
762.0	8.376
763.0	7.981
764.0	13.61
765.0	9.120
766.0	11.38
767.0	10.92
768.0	10.33
769.0	12.03
770.0	10.63
771.0	9.954
772.0	12.44
773.0	8.040
774.0	10.15
775.0	11.99
776.0	9.361
777.0	7.231
778.0	12.46
779.0	10.35
780.0	7.536

Sample:	'wa-14(EM)
File name:	60.FDS
Run Date:	'18:18:44, 07/11/2024
Operator:	WXH
Comment:	'

Instrument
Model:	F-4600 FL Spectrophotometer
Serial Number:	3080-002
ROM Version:	5J24000 02

Instrument Parameters
Measurement type:	Wavelength scan
Scan mode:	Emission
Data mode:	Fluorescence
EX WL:	460.0 nm
EM  Start WL:	480.0 nm
EM  End WL:	780.0 nm
Scan speed:	1200 nm/min
Delay:	0.0 s
EX Slit:	2.5 nm
EM Slit:	2.5 nm
PMT Voltage:	600 V
Response:	Auto 
Corrected spectra:	Off
Shutter control:	On

Peak integration
Integration method:	Rectangular
Sensitivity:	1
Threshold:	1.000

Peaks
No.	Valley(nm)	Valley(Data)
1	484.2	22.57
2	511.4	306.7
3	513.4	310.6
4	515.8	298.5
5	517.6	310.7
6	524.6	266.4
7	529.2	249.4
8	532.8	229.6
9	536.0	215.9
10	543.0	175.9
11	546.0	161.2
12	552.4	123.0
13	555.0	112.1
14	558.0	107.3
15	566.4	75.13
16	569.6	64.54
17	572.8	63.52
18	577.0	52.23
19	582.4	42.86
20	583.6	45.14
21	589.0	38.10
22	591.8	33.51
23	596.0	24.98
24	599.0	26.00
25	602.6	24.35
26	605.6	19.11
27	609.6	19.12
28	611.4	20.92
29	616.0	14.52
30	618.8	15.53
31	624.0	15.82
32	629.0	12.13
33	632.4	12.53
34	639.0	9.823
35	642.8	11.28
36	645.4	9.447
37	649.6	8.043
38	653.6	8.700
39	658.0	5.472
40	663.6	7.424
41	669.8	7.762
42	672.4	8.935
43	674.2	8.531
44	677.4	9.020
45	680.0	8.073
46	681.8	5.860
47	687.4	7.102
48	688.8	9.703
49	691.8	7.023
50	693.8	8.974
51	697.4	7.952
52	702.6	7.162
53	706.8	7.854
54	708.4	5.737
55	714.8	5.201
56	716.4	6.543
57	720.8	6.492
58	724.6	6.838
59	728.0	8.802
60	730.2	4.617
61	732.2	5.657
62	735.4	7.358
63	737.0	7.290
64	739.8	6.990
65	742.2	8.319
66	744.8	7.963
67	746.4	7.622
68	752.6	6.899
69	754.4	7.041
70	760.2	6.396
71	763.6	7.607
72	767.8	8.071
73	770.8	7.569
74	777.4	6.680
75	780.0	8.170

Data Points
nm	Data
480.0	27.41
481.0	22.42
482.0	24.62
483.0	24.94
484.0	23.40
485.0	27.31
486.0	34.84
487.0	51.37
488.0	49.92
489.0	52.62
490.0	62.66
491.0	81.74
492.0	78.21
493.0	93.32
494.0	113.7
495.0	124.9
496.0	136.7
497.0	153.7
498.0	181.6
499.0	187.3
500.0	213.5
501.0	227.6
502.0	252.2
503.0	270.5
504.0	279.8
505.0	285.6
506.0	296.4
507.0	314.9
508.0	315.1
509.0	318.2
510.0	324.1
511.0	322.0
512.0	318.5
513.0	302.4
514.0	317.0
515.0	317.2
516.0	303.0
517.0	315.4
518.0	314.6
519.0	319.3
520.0	311.7
521.0	284.1
522.0	296.2
523.0	282.7
524.0	276.9
525.0	276.5
526.0	287.0
527.0	283.3
528.0	260.3
529.0	262.9
530.0	265.9
531.0	251.8
532.0	250.0
533.0	233.4
534.0	250.0
535.0	231.5
536.0	215.9
537.0	220.5
538.0	207.0
539.0	218.4
540.0	201.3
541.0	198.1
542.0	177.7
543.0	175.9
544.0	170.5
545.0	170.3
546.0	161.2
547.0	174.5
548.0	159.1
549.0	145.3
550.0	131.4
551.0	139.0
552.0	129.5
553.0	124.7
554.0	118.7
555.0	112.1
556.0	125.1
557.0	119.1
558.0	107.3
559.0	114.1
560.0	109.0
561.0	107.6
562.0	100.0
563.0	94.91
564.0	93.95
565.0	80.37
566.0	76.99
567.0	76.46
568.0	85.45
569.0	76.10
570.0	68.12
571.0	79.73
572.0	78.25
573.0	71.42
574.0	66.83
575.0	66.55
576.0	55.99
577.0	52.23
578.0	57.80
579.0	53.64
580.0	55.23
581.0	51.87
582.0	43.47
583.0	50.02
584.0	46.98
585.0	50.05
586.0	45.81
587.0	50.35
588.0	44.89
589.0	38.10
590.0	44.96
591.0	33.47
592.0	34.49
593.0	35.43
594.0	38.59
595.0	31.98
596.0	24.98
597.0	32.52
598.0	33.51
599.0	26.00
600.0	27.82
601.0	28.20
602.0	27.80
603.0	26.84
604.0	26.86
605.0	25.92
606.0	20.21
607.0	26.30
608.0	26.21
609.0	22.92
610.0	26.95
611.0	24.67
612.0	23.35
613.0	23.98
614.0	25.61
615.0	21.18
616.0	14.52
617.0	20.22
618.0	20.84
619.0	17.28
620.0	18.13
621.0	21.81
622.0	21.68
623.0	23.15
624.0	15.82
625.0	22.43
626.0	17.06
627.0	15.88
628.0	16.85
629.0	12.13
630.0	16.18
631.0	13.88
632.0	14.66
633.0	15.00
634.0	17.34
635.0	15.76
636.0	19.18
637.0	14.34
638.0	12.90
639.0	9.823
640.0	15.42
641.0	12.12
642.0	11.90
643.0	12.73
644.0	12.67
645.0	12.33
646.0	14.67
647.0	13.04
648.0	9.988
649.0	9.375
650.0	8.900
651.0	13.37
652.0	15.34
653.0	10.34
654.0	11.64
655.0	11.85
656.0	9.813
657.0	10.60
658.0	5.472
659.0	11.88
660.0	9.433
661.0	12.74
662.0	12.26
663.0	8.579
664.0	9.935
665.0	12.33
666.0	11.41
667.0	10.71
668.0	11.61
669.0	8.113
670.0	10.02
671.0	12.27
672.0	13.26
673.0	15.61
674.0	11.46
675.0	13.47
676.0	14.55
677.0	11.82
678.0	11.93
679.0	10.28
680.0	8.073
681.0	10.93
682.0	11.11
683.0	11.00
684.0	12.17
685.0	10.79
686.0	10.25
687.0	10.51
688.0	13.90
689.0	10.27
690.0	12.28
691.0	10.73
692.0	9.743
693.0	11.53
694.0	10.84
695.0	11.07
696.0	10.03
697.0	10.37
698.0	8.593
699.0	9.818
700.0	11.99
701.0	9.881
702.0	9.653
703.0	10.56
704.0	14.14
705.0	13.08
706.0	13.51
707.0	10.27
708.0	6.772
709.0	8.759
710.0	8.132
711.0	15.71
712.0	10.78
713.0	8.017
714.0	8.299
715.0	10.76
716.0	8.280
717.0	8.393
718.0	12.00
719.0	11.65
720.0	8.267
721.0	6.688
722.0	8.931
723.0	10.65
724.0	11.34
725.0	13.88
726.0	13.78
727.0	8.543
728.0	8.802
729.0	14.39
730.0	4.937
731.0	10.35
732.0	6.814
733.0	9.152
734.0	11.06
735.0	8.027
736.0	9.208
737.0	7.290
738.0	9.571
739.0	10.78
740.0	7.933
741.0	14.74
742.0	9.711
743.0	10.66
744.0	9.925
745.0	9.175
746.0	8.959
747.0	12.50
748.0	10.98
749.0	12.98
750.0	7.721
751.0	10.35
752.0	8.016
753.0	7.987
754.0	8.461
755.0	8.719
756.0	8.214
757.0	7.928
758.0	10.30
759.0	10.73
760.0	8.081
761.0	11.45
762.0	11.50
763.0	9.242
764.0	8.925
765.0	10.78
766.0	12.92
767.0	12.27
768.0	10.12
769.0	11.27
770.0	10.52
771.0	8.797
772.0	12.30
773.0	9.723
774.0	6.679
775.0	8.983
776.0	9.949
777.0	7.094
778.0	9.859
779.0	6.543
780.0	8.170

Sample:	'wa-15(EM)
File name:	60.FDS
Run Date:	'18:19:14, 07/11/2024
Operator:	WXH
Comment:	'

Instrument
Model:	F-4600 FL Spectrophotometer
Serial Number:	3080-002
ROM Version:	5J24000 02

Instrument Parameters
Measurement type:	Wavelength scan
Scan mode:	Emission
Data mode:	Fluorescence
EX WL:	460.0 nm
EM  Start WL:	480.0 nm
EM  End WL:	780.0 nm
Scan speed:	1200 nm/min
Delay:	0.0 s
EX Slit:	2.5 nm
EM Slit:	2.5 nm
PMT Voltage:	600 V
Response:	Auto 
Corrected spectra:	Off
Shutter control:	On

Peak integration
Integration method:	Rectangular
Sensitivity:	1
Threshold:	1.000

Peaks
No.	Valley(nm)	Valley(Data)
1	510.6	295.2
2	513.4	300.5
3	515.8	294.7
4	518.4	304.2
5	524.0	262.4
6	527.4	249.2
7	535.0	210.7
8	538.2	203.5
9	551.2	123.4
10	553.0	124.4
11	559.4	100.1
12	564.0	76.89
13	567.6	69.33
14	572.4	63.76
15	576.8	54.59
16	581.2	47.50
17	584.2	43.39
18	587.8	36.63
19	596.6	27.22
20	600.2	25.14
21	603.4	27.37
22	607.2	18.00
23	609.4	20.81
24	611.0	20.03
25	614.2	22.08
26	616.0	17.62
27	619.0	16.65
28	623.6	12.48
29	628.0	14.28
30	633.0	10.54
31	636.6	11.98
32	638.6	14.43
33	645.6	10.60
34	647.4	13.42
35	651.6	13.90
36	654.6	9.149
37	656.4	8.104
38	659.0	8.575
39	663.4	10.80
40	665.6	9.285
41	671.6	7.895
42	672.8	8.771
43	676.2	11.98
44	681.0	9.263
45	684.2	7.478
46	690.0	5.582
47	695.4	7.979
48	699.6	6.300
49	707.0	7.199
50	711.6	9.948
51	716.4	7.820
52	718.2	6.028
53	722.8	4.637
54	726.4	6.839
55	731.0	6.357
56	733.6	7.786
57	737.0	7.878
58	739.6	7.225
59	742.4	7.039
60	744.0	7.545
61	750.0	8.041
62	753.0	5.036
63	756.8	8.818
64	760.8	6.921
65	763.2	8.060
66	767.4	9.445
67	769.2	7.158
68	775.6	5.100
69	780.0	8.828

Data Points
nm	Data
480.0	25.06
481.0	20.71
482.0	18.58
483.0	27.52
484.0	26.24
485.0	27.18
486.0	37.03
487.0	41.16
488.0	51.33
489.0	55.42
490.0	57.40
491.0	65.95
492.0	83.58
493.0	104.4
494.0	115.3
495.0	116.6
496.0	130.3
497.0	153.1
498.0	162.8
499.0	194.2
500.0	218.7
501.0	238.3
502.0	251.5
503.0	260.4
504.0	272.8
505.0	294.4
506.0	297.2
507.0	306.8
508.0	299.5
509.0	327.7
510.0	308.7
511.0	309.8
512.0	327.2
513.0	317.5
514.0	325.4
515.0	317.4
516.0	299.5
517.0	313.6
518.0	305.3
519.0	322.6
520.0	299.3
521.0	284.2
522.0	274.1
523.0	271.0
524.0	262.4
525.0	279.4
526.0	279.0
527.0	261.7
528.0	258.2
529.0	264.7
530.0	246.6
531.0	241.9
532.0	235.8
533.0	228.7
534.0	233.1
535.0	210.7
536.0	218.0
537.0	219.9
538.0	203.8
539.0	211.1
540.0	219.8
541.0	204.0
542.0	195.0
543.0	190.2
544.0	187.7
545.0	173.7
546.0	160.2
547.0	155.5
548.0	151.7
549.0	140.5
550.0	147.1
551.0	132.1
552.0	139.1
553.0	124.4
554.0	129.1
555.0	134.9
556.0	123.1
557.0	110.5
558.0	110.3
559.0	106.5
560.0	113.2
561.0	110.0
562.0	95.68
563.0	94.72
564.0	76.89
565.0	87.22
566.0	83.31
567.0	76.48
568.0	83.31
569.0	69.80
570.0	70.86
571.0	71.43
572.0	71.20
573.0	73.67
574.0	79.71
575.0	63.39
576.0	64.19
577.0	55.52
578.0	66.69
579.0	62.84
580.0	60.50
581.0	51.61
582.0	53.21
583.0	48.52
584.0	46.39
585.0	51.34
586.0	49.99
587.0	43.51
588.0	41.63
589.0	37.96
590.0	45.85
591.0	35.71
592.0	35.94
593.0	35.98
594.0	37.84
595.0	35.81
596.0	29.23
597.0	29.83
598.0	34.38
599.0	32.21
600.0	28.72
601.0	32.85
602.0	32.16
603.0	29.20
604.0	36.63
605.0	25.98
606.0	23.60
607.0	21.45
608.0	25.29
609.0	24.53
610.0	23.85
611.0	20.03
612.0	23.40
613.0	26.11
614.0	22.67
615.0	23.78
616.0	17.62
617.0	21.65
618.0	19.88
619.0	16.65
620.0	21.22
621.0	21.69
622.0	16.43
623.0	16.13
624.0	14.65
625.0	15.78
626.0	15.97
627.0	18.20
628.0	14.28
629.0	17.19
630.0	17.69
631.0	15.62
632.0	12.35
633.0	10.54
634.0	16.80
635.0	18.91
636.0	15.13
637.0	15.75
638.0	16.24
639.0	14.56
640.0	15.58
641.0	17.47
642.0	12.15
643.0	11.64
644.0	11.37
645.0	11.31
646.0	13.45
647.0	17.45
648.0	13.98
649.0	14.93
650.0	15.71
651.0	14.88
652.0	17.59
653.0	13.25
654.0	13.83
655.0	10.28
656.0	11.35
657.0	11.15
658.0	11.32
659.0	8.575
660.0	12.41
661.0	12.04
662.0	14.30
663.0	12.98
664.0	13.99
665.0	14.60
666.0	12.35
667.0	11.19
668.0	13.38
669.0	11.35
670.0	10.96
671.0	10.17
672.0	13.00
673.0	11.04
674.0	11.84
675.0	13.98
676.0	12.37
677.0	17.04
678.0	13.53
679.0	14.12
680.0	12.45
681.0	9.263
682.0	12.35
683.0	13.98
684.0	8.149
685.0	10.51
686.0	7.074
687.0	12.04
688.0	9.076
689.0	7.038
690.0	5.582
691.0	6.702
692.0	10.76
693.0	12.65
694.0	12.11
695.0	11.02
696.0	8.911
697.0	13.78
698.0	12.23
699.0	11.06
700.0	10.12
701.0	9.454
702.0	13.97
703.0	12.42
704.0	10.40
705.0	9.070
706.0	10.58
707.0	7.199
708.0	11.19
709.0	12.47
710.0	15.53
711.0	12.79
712.0	10.45
713.0	12.54
714.0	13.89
715.0	12.35
716.0	9.660
717.0	12.17
718.0	7.790
719.0	7.501
720.0	7.772
721.0	9.795
722.0	6.964
723.0	6.654
724.0	7.115
725.0	8.460
726.0	9.448
727.0	7.747
728.0	8.442
729.0	12.39
730.0	7.387
731.0	6.357
732.0	8.258
733.0	8.971
734.0	9.862
735.0	13.31
736.0	10.34
737.0	7.878
738.0	10.79
739.0	8.497
740.0	10.33
741.0	10.25
742.0	8.654
743.0	11.75
744.0	7.545
745.0	11.00
746.0	12.74
747.0	9.056
748.0	9.056
749.0	8.227
750.0	8.041
751.0	10.87
752.0	10.45
753.0	5.036
754.0	13.43
755.0	14.96
756.0	11.80
757.0	9.732
758.0	9.495
759.0	9.216
760.0	10.00
761.0	7.627
762.0	7.908
763.0	9.193
764.0	9.033
765.0	10.52
766.0	8.605
767.0	12.17
768.0	9.754
769.0	10.46
770.0	8.271
771.0	8.460
772.0	8.254
773.0	9.959
774.0	11.20
775.0	5.373
776.0	8.502
777.0	10.45
778.0	8.714
779.0	10.48
780.0	8.828

Sample:	'wa-16(EM)
File name:	60.FDS
Run Date:	'18:19:44, 07/11/2024
Operator:	WXH
Comment:	'

Instrument
Model:	F-4600 FL Spectrophotometer
Serial Number:	3080-002
ROM Version:	5J24000 02

Instrument Parameters
Measurement type:	Wavelength scan
Scan mode:	Emission
Data mode:	Fluorescence
EX WL:	460.0 nm
EM  Start WL:	480.0 nm
EM  End WL:	780.0 nm
Scan speed:	1200 nm/min
Delay:	0.0 s
EX Slit:	2.5 nm
EM Slit:	2.5 nm
PMT Voltage:	600 V
Response:	Auto 
Corrected spectra:	Off
Shutter control:	On

Peak integration
Integration method:	Rectangular
Sensitivity:	1
Threshold:	1.000

Peaks
No.	Valley(nm)	Valley(Data)
1	481.6	20.12
2	509.6	290.3
3	512.6	299.0
4	520.4	274.1
5	524.2	252.1
6	528.2	250.3
7	531.8	234.5
8	539.8	187.7
9	543.4	182.0
10	546.4	149.4
11	557.2	108.7
12	560.4	90.28
13	565.4	76.51
14	570.4	64.55
15	578.2	52.82
16	582.6	43.19
17	585.0	44.22
18	587.2	38.63
19	591.4	35.45
20	593.6	32.30
21	597.4	31.58
22	602.8	23.47
23	604.8	22.38
24	607.4	18.63
25	609.6	19.26
26	611.4	18.96
27	615.6	17.01
28	620.0	14.80
29	623.2	12.91
30	626.8	12.47
31	632.4	11.48
32	635.6	9.607
33	640.0	11.03
34	642.4	10.56
35	645.8	9.959
36	647.4	9.713
37	650.8	7.620
38	652.8	9.855
39	656.0	11.24
40	657.8	8.994
41	662.2	8.815
42	664.2	11.03
43	665.0	11.07
44	668.8	7.701
45	671.2	8.032
46	674.4	12.00
47	675.6	10.90
48	678.2	8.650
49	680.4	6.793
50	683.4	6.661
51	689.6	8.124
52	692.2	8.265
53	693.6	9.542
54	695.4	8.133
55	698.8	8.599
56	702.4	7.626
57	706.2	7.115
58	708.2	8.386
59	711.2	7.514
60	714.8	7.634
61	718.4	6.476
62	722.4	6.440
63	726.2	9.643
64	729.4	4.912
65	733.6	6.869
66	736.8	7.175
67	740.2	7.969
68	742.2	7.373
69	745.4	9.294
70	749.8	6.595
71	753.0	7.910
72	756.2	11.15
73	760.0	7.638
74	764.0	8.259
75	767.2	7.839
76	771.8	6.443
77	774.8	7.092
78	780.0	7.358

Data Points
nm	Data
480.0	27.59
481.0	23.02
482.0	21.62
483.0	27.39
484.0	32.65
485.0	33.61
486.0	39.16
487.0	47.18
488.0	46.07
489.0	55.52
490.0	63.84
491.0	66.26
492.0	75.97
493.0	98.89
494.0	122.7
495.0	136.2
496.0	141.4
497.0	141.3
498.0	163.2
499.0	195.4
500.0	223.7
501.0	233.2
502.0	245.0
503.0	251.1
504.0	286.0
505.0	278.7
506.0	290.7
507.0	311.7
508.0	306.1
509.0	296.7
510.0	305.7
511.0	324.3
512.0	322.8
513.0	314.9
514.0	350.8
515.0	327.4
516.0	301.1
517.0	298.2
518.0	309.5
519.0	299.0
520.0	284.1
521.0	291.0
522.0	280.8
523.0	284.3
524.0	265.8
525.0	269.3
526.0	281.6
527.0	270.5
528.0	250.7
529.0	279.8
530.0	245.9
531.0	248.0
532.0	243.3
533.0	245.3
534.0	233.8
535.0	231.3
536.0	219.4
537.0	205.8
538.0	211.2
539.0	194.8
540.0	190.3
541.0	199.1
542.0	183.3
543.0	193.4
544.0	186.6
545.0	176.6
546.0	157.2
547.0	159.5
548.0	162.1
549.0	154.1
550.0	150.3
551.0	140.2
552.0	128.4
553.0	129.4
554.0	122.9
555.0	120.7
556.0	121.5
557.0	111.2
558.0	113.6
559.0	117.1
560.0	101.5
561.0	95.92
562.0	103.1
563.0	97.60
564.0	87.23
565.0	85.30
566.0	85.49
567.0	90.66
568.0	79.38
569.0	78.17
570.0	65.14
571.0	66.72
572.0	74.78
573.0	75.66
574.0	68.65
575.0	65.40
576.0	68.72
577.0	65.93
578.0	59.94
579.0	53.24
580.0	51.87
581.0	46.66
582.0	43.66
583.0	45.90
584.0	50.67
585.0	44.22
586.0	52.29
587.0	39.54
588.0	42.32
589.0	46.49
590.0	43.36
591.0	39.23
592.0	39.40
593.0	35.20
594.0	33.29
595.0	39.56
596.0	37.93
597.0	34.56
598.0	38.16
599.0	37.29
600.0	30.86
601.0	28.63
602.0	25.49
603.0	23.99
604.0	28.42
605.0	25.22
606.0	28.38
607.0	24.94
608.0	24.92
609.0	21.25
610.0	25.73
611.0	20.38
612.0	24.06
613.0	24.31
614.0	19.37
615.0	21.57
616.0	19.52
617.0	23.37
618.0	18.25
619.0	19.10
620.0	14.80
621.0	21.46
622.0	24.17
623.0	14.52
624.0	13.43
625.0	15.85
626.0	17.70
627.0	14.10
628.0	18.48
629.0	18.53
630.0	15.70
631.0	14.29
632.0	13.31
633.0	18.47
634.0	13.31
635.0	11.06
636.0	13.58
637.0	14.78
638.0	17.16
639.0	16.38
640.0	11.03
641.0	14.26
642.0	15.24
643.0	18.60
644.0	15.99
645.0	11.71
646.0	12.31
647.0	10.59
648.0	14.66
649.0	15.11
650.0	9.635
651.0	10.33
652.0	14.55
653.0	11.77
654.0	12.39
655.0	13.05
656.0	11.24
657.0	14.48
658.0	11.57
659.0	13.82
660.0	11.29
661.0	10.66
662.0	10.66
663.0	11.16
664.0	11.90
665.0	11.07
666.0	12.10
667.0	11.52
668.0	14.59
669.0	8.861
670.0	8.462
671.0	8.341
672.0	14.36
673.0	15.56
674.0	12.30
675.0	14.02
676.0	13.55
677.0	12.24
678.0	11.72
679.0	13.12
680.0	8.948
681.0	9.542
682.0	12.00
683.0	7.816
684.0	8.413
685.0	8.929
686.0	8.937
687.0	13.87
688.0	11.99
689.0	10.77
690.0	10.53
691.0	11.44
692.0	8.584
693.0	13.07
694.0	9.646
695.0	11.12
696.0	8.626
697.0	11.28
698.0	10.57
699.0	9.802
700.0	11.02
701.0	14.32
702.0	10.48
703.0	11.49
704.0	14.72
705.0	9.742
706.0	8.162
707.0	14.88
708.0	9.329
709.0	10.62
710.0	11.30
711.0	8.676
712.0	8.890
713.0	11.04
714.0	8.850
715.0	8.457
716.0	12.74
717.0	10.88
718.0	8.498
719.0	11.81
720.0	12.70
721.0	8.973
722.0	9.243
723.0	10.34
724.0	15.51
725.0	10.99
726.0	10.91
727.0	13.16
728.0	7.512
729.0	6.811
730.0	9.186
731.0	7.127
732.0	9.787
733.0	9.268
734.0	9.603
735.0	12.23
736.0	10.24
737.0	7.243
738.0	13.14
739.0	10.08
740.0	9.960
741.0	12.61
742.0	7.802
743.0	9.524
744.0	10.45
745.0	10.52
746.0	11.19
747.0	14.87
748.0	13.32
749.0	9.457
750.0	9.689
751.0	9.120
752.0	11.95
753.0	7.910
754.0	8.880
755.0	14.34
756.0	11.34
757.0	12.30
758.0	9.330
759.0	11.36
760.0	7.638
761.0	10.80
762.0	9.115
763.0	11.50
764.0	8.259
765.0	9.980
766.0	10.30
767.0	8.272
768.0	11.33
769.0	12.62
770.0	9.681
771.0	7.841
772.0	8.835
773.0	9.455
774.0	7.331
775.0	7.919
776.0	13.19
777.0	11.33
778.0	9.976
779.0	9.405
780.0	7.358

Sample:	'wa-17(EM)
File name:	60.FDS
Run Date:	'18:20:14, 07/11/2024
Operator:	WXH
Comment:	'

Instrument
Model:	F-4600 FL Spectrophotometer
Serial Number:	3080-002
ROM Version:	5J24000 02

Instrument Parameters
Measurement type:	Wavelength scan
Scan mode:	Emission
Data mode:	Fluorescence
EX WL:	460.0 nm
EM  Start WL:	480.0 nm
EM  End WL:	780.0 nm
Scan speed:	1200 nm/min
Delay:	0.0 s
EX Slit:	2.5 nm
EM Slit:	2.5 nm
PMT Voltage:	600 V
Response:	Auto 
Corrected spectra:	Off
Shutter control:	On

Peak integration
Integration method:	Rectangular
Sensitivity:	1
Threshold:	1.000

Peaks
No.	Valley(nm)	Valley(Data)
1	484.2	25.13
2	488.4	46.84
3	510.8	307.4
4	513.8	293.3
5	517.4	300.8
6	520.6	294.2
7	526.6	252.4
8	535.8	211.4
9	539.4	180.6
10	545.2	158.9
11	548.2	144.0
12	551.6	126.6
13	556.2	114.5
14	564.4	82.81
15	569.2	71.16
16	572.0	62.52
17	575.4	59.12
18	579.0	51.99
19	581.6	43.60
20	583.2	48.23
21	586.4	38.06
22	589.2	38.13
23	595.8	26.67
24	599.0	28.12
25	603.4	21.84
26	608.4	21.06
27	609.8	22.88
28	613.8	18.76
29	617.4	18.07
30	620.8	17.30
31	623.4	17.46
32	626.0	13.57
33	628.0	14.30
34	629.8	12.79
35	633.2	12.84
36	637.4	11.59
37	640.8	8.819
38	644.8	8.856
39	648.6	10.46
40	651.0	7.688
41	660.2	7.908
42	663.6	11.42
43	666.8	9.996
44	670.2	10.64
45	672.6	10.10
46	674.6	9.984
47	679.0	8.443
48	686.0	8.508
49	687.8	8.112
50	692.8	7.783
51	694.0	9.319
52	697.6	10.24
53	700.0	10.18
54	702.4	8.926
55	705.0	7.587
56	707.6	7.189
57	711.2	5.564
58	715.8	8.614
59	720.0	5.092
60	722.4	9.002
61	724.8	6.635
62	729.6	9.729
63	732.0	8.200
64	735.2	6.439
65	738.4	6.980
66	741.4	6.994
67	744.4	7.483
68	749.6	7.751
69	751.4	6.031
70	753.6	8.976
71	756.4	8.198
72	759.0	5.113
73	763.6	6.414
74	766.2	9.230
75	768.6	4.594
76	772.6	8.238
77	774.4	8.139
78	776.4	7.718
79	780.0	9.588

Data Points
nm	Data
480.0	14.85
481.0	22.87
482.0	16.30
483.0	29.31
484.0	26.08
485.0	29.43
486.0	34.11
487.0	43.47
488.0	51.33
489.0	52.28
490.0	65.04
491.0	64.43
492.0	80.56
493.0	89.57
494.0	99.92
495.0	121.1
496.0	134.7
497.0	147.9
498.0	182.0
499.0	201.0
500.0	212.9
501.0	211.6
502.0	234.1
503.0	267.4
504.0	283.6
505.0	281.5
506.0	302.2
507.0	305.4
508.0	316.8
509.0	322.0
510.0	328.1
511.0	322.7
512.0	318.5
513.0	335.9
514.0	298.4
515.0	326.0
516.0	322.2
517.0	316.6
518.0	305.3
519.0	314.6
520.0	301.8
521.0	305.5
522.0	287.5
523.0	298.6
524.0	297.7
525.0	288.1
526.0	262.4
527.0	266.7
528.0	251.2
529.0	252.1
530.0	252.7
531.0	247.9
532.0	254.8
533.0	243.9
534.0	247.7
535.0	228.0
536.0	215.1
537.0	225.4
538.0	214.3
539.0	193.2
540.0	200.9
541.0	189.8
542.0	185.2
543.0	184.8
544.0	180.9
545.0	161.4
546.0	170.4
547.0	160.3
548.0	147.8
549.0	144.2
550.0	150.5
551.0	130.1
552.0	131.1
553.0	145.7
554.0	121.3
555.0	117.7
556.0	115.1
557.0	122.3
558.0	115.8
559.0	113.6
560.0	107.7
561.0	102.6
562.0	101.6
563.0	96.29
564.0	83.47
565.0	90.62
566.0	88.22
567.0	80.98
568.0	78.90
569.0	75.57
570.0	80.17
571.0	74.86
572.0	62.52
573.0	73.95
574.0	66.00
575.0	62.96
576.0	72.60
577.0	61.93
578.0	55.44
579.0	51.99
580.0	62.52
581.0	55.91
582.0	51.54
583.0	50.36
584.0	57.21
585.0	49.24
586.0	47.48
587.0	44.54
588.0	42.97
589.0	42.98
590.0	40.81
591.0	40.97
592.0	36.46
593.0	37.59
594.0	35.41
595.0	33.10
596.0	29.39
597.0	39.39
598.0	38.44
599.0	28.12
600.0	30.98
601.0	28.25
602.0	28.38
603.0	21.44
604.0	23.15
605.0	29.52
606.0	33.47
607.0	23.33
608.0	22.38
609.0	28.37
610.0	23.97
611.0	25.78
612.0	26.47
613.0	23.57
614.0	20.49
615.0	22.63
616.0	19.78
617.0	19.68
618.0	19.59
619.0	26.01
620.0	19.04
621.0	19.54
622.0	20.78
623.0	17.93
624.0	19.92
625.0	23.29
626.0	13.57
627.0	16.74
628.0	14.30
629.0	18.18
630.0	12.92
631.0	15.74
632.0	15.86
633.0	14.12
634.0	22.71
635.0	22.66
636.0	13.43
637.0	12.14
638.0	12.23
639.0	11.69
640.0	13.97
641.0	9.004
642.0	13.93
643.0	15.07
644.0	10.67
645.0	10.40
646.0	9.204
647.0	15.17
648.0	10.72
649.0	11.54
650.0	10.66
651.0	7.688
652.0	9.995
653.0	11.74
654.0	15.65
655.0	17.97
656.0	13.92
657.0	14.76
658.0	14.99
659.0	10.67
660.0	9.218
661.0	11.01
662.0	9.994
663.0	12.71
664.0	12.67
665.0	13.36
666.0	12.58
667.0	11.32
668.0	12.69
669.0	13.16
670.0	12.85
671.0	10.93
672.0	12.94
673.0	10.26
674.0	15.92
675.0	12.43
676.0	12.05
677.0	13.98
678.0	9.433
679.0	8.443
680.0	12.78
681.0	12.73
682.0	10.41
683.0	11.90
684.0	12.26
685.0	12.99
686.0	8.508
687.0	11.10
688.0	10.38
689.0	13.82
690.0	16.89
691.0	13.37
692.0	9.484
693.0	8.738
694.0	9.319
695.0	9.700
696.0	12.51
697.0	13.01
698.0	11.00
699.0	13.49
700.0	10.18
701.0	13.26
702.0	9.687
703.0	14.52
704.0	11.10
705.0	7.587
706.0	10.16
707.0	10.65
708.0	7.471
709.0	9.525
710.0	13.12
711.0	6.950
712.0	9.386
713.0	12.14
714.0	11.58
715.0	12.81
716.0	10.37
717.0	11.12
718.0	14.73
719.0	8.285
720.0	5.092
721.0	10.30
722.0	11.70
723.0	10.19
724.0	10.51
725.0	7.504
726.0	9.453
727.0	12.45
728.0	13.03
729.0	11.76
730.0	13.43
731.0	12.97
732.0	8.200
733.0	8.323
734.0	10.08
735.0	7.621
736.0	10.73
737.0	9.762
738.0	8.390
739.0	10.24
740.0	8.987
741.0	7.836
742.0	9.499
743.0	10.21
744.0	10.53
745.0	8.548
746.0	11.36
747.0	10.15
748.0	9.335
749.0	8.367
750.0	11.33
751.0	8.141
752.0	9.699
753.0	10.73
754.0	11.49
755.0	9.246
756.0	9.291
757.0	11.21
758.0	12.31
759.0	5.113
760.0	12.39
761.0	12.23
762.0	15.44
763.0	8.891
764.0	9.103
765.0	9.784
766.0	9.763
767.0	10.57
768.0	8.465
769.0	7.761
770.0	7.931
771.0	8.600
772.0	12.25
773.0	10.14
774.0	10.42
775.0	9.693
776.0	10.34
777.0	9.285
778.0	10.66
779.0	9.635
780.0	9.588

Sample:	'wa-18(EM)
File name:	60.FDS
Run Date:	'18:20:45, 07/11/2024
Operator:	WXH
Comment:	'

Instrument
Model:	F-4600 FL Spectrophotometer
Serial Number:	3080-002
ROM Version:	5J24000 02

Instrument Parameters
Measurement type:	Wavelength scan
Scan mode:	Emission
Data mode:	Fluorescence
EX WL:	460.0 nm
EM  Start WL:	480.0 nm
EM  End WL:	780.0 nm
Scan speed:	1200 nm/min
Delay:	0.0 s
EX Slit:	2.5 nm
EM Slit:	2.5 nm
PMT Voltage:	600 V
Response:	Auto 
Corrected spectra:	Off
Shutter control:	On

Peak integration
Integration method:	Rectangular
Sensitivity:	1
Threshold:	1.000

Peaks
No.	Valley(nm)	Valley(Data)
1	484.4	22.87
2	512.8	309.5
3	514.4	313.7
4	517.8	300.1
5	521.2	287.2
6	526.0	251.7
7	530.4	237.4
8	533.4	223.7
9	543.6	171.9
10	547.8	154.7
11	552.0	131.6
12	554.2	125.3
13	559.4	95.15
14	562.4	92.26
15	573.4	60.65
16	576.6	59.14
17	582.8	43.01
18	584.0	48.42
19	588.4	40.02
20	592.4	33.21
21	596.2	24.90
22	597.6	25.08
23	601.0	20.37
24	603.6	22.38
25	607.6	18.63
26	612.4	19.36
27	614.0	17.81
28	620.6	15.76
29	622.8	17.37
30	629.4	12.23
31	631.6	11.66
32	633.6	10.71
33	635.8	11.68
34	639.4	10.61
35	644.2	8.219
36	646.4	8.555
37	652.8	8.197
38	658.0	10.83
39	659.8	10.93
40	665.2	8.961
41	668.8	9.538
42	672.2	6.777
43	675.2	7.720
44	680.0	8.045
45	682.2	9.348
46	687.0	6.877
47	691.8	7.559
48	693.2	8.505
49	696.0	4.237
50	703.4	9.147
51	707.2	7.905
52	710.0	8.028
53	714.2	4.714
54	716.2	7.097
55	720.8	6.812
56	723.2	6.809
57	728.8	10.09
58	730.8	7.810
59	735.0	7.716
60	736.2	9.052
61	738.4	7.420
62	740.6	7.809
63	744.6	8.293
64	747.0	5.581
65	749.0	8.947
66	752.0	10.09
67	755.0	7.405
68	757.0	7.786
69	762.6	7.701
70	765.6	5.792
71	769.2	9.644
72	771.6	8.797
73	774.8	6.225
74	777.8	7.583

Data Points
nm	Data
480.0	21.61
481.0	19.91
482.0	29.02
483.0	29.37
484.0	23.82
485.0	29.70
486.0	38.95
487.0	42.36
488.0	49.29
489.0	59.26
490.0	69.90
491.0	76.52
492.0	97.87
493.0	102.3
494.0	101.6
495.0	117.8
496.0	137.3
497.0	156.4
498.0	179.3
499.0	187.8
500.0	212.6
501.0	228.6
502.0	253.4
503.0	276.0
504.0	289.3
505.0	300.5
506.0	309.0
507.0	314.4
508.0	317.0
509.0	318.7
510.0	333.0
511.0	315.8
512.0	317.5
513.0	326.3
514.0	329.4
515.0	318.2
516.0	326.1
517.0	314.5
518.0	307.4
519.0	328.0
520.0	294.3
521.0	294.7
522.0	299.4
523.0	293.0
524.0	288.0
525.0	276.7
526.0	251.7
527.0	267.4
528.0	248.7
529.0	263.9
530.0	243.8
531.0	246.8
532.0	251.9
533.0	245.0
534.0	242.6
535.0	250.5
536.0	220.1
537.0	199.8
538.0	202.3
539.0	195.5
540.0	196.4
541.0	188.0
542.0	184.0
543.0	176.0
544.0	191.3
545.0	177.3
546.0	169.9
547.0	155.3
548.0	158.5
549.0	162.7
550.0	155.5
551.0	144.3
552.0	131.6
553.0	138.1
554.0	125.5
555.0	126.3
556.0	121.6
557.0	123.5
558.0	110.1
559.0	101.1
560.0	102.6
561.0	105.8
562.0	98.49
563.0	94.76
564.0	97.92
565.0	79.44
566.0	88.59
567.0	79.93
568.0	78.86
569.0	78.65
570.0	69.33
571.0	68.36
572.0	64.61
573.0	66.61
574.0	72.76
575.0	67.01
576.0	59.30
577.0	64.58
578.0	65.97
579.0	58.85
580.0	53.81
581.0	52.90
582.0	45.69
583.0	44.65
584.0	48.42
585.0	51.49
586.0	57.81
587.0	44.54
588.0	47.83
589.0	46.22
590.0	45.49
591.0	38.80
592.0	37.57
593.0	36.31
594.0	41.18
595.0	26.78
596.0	27.68
597.0	32.17
598.0	35.94
599.0	34.01
600.0	30.08
601.0	20.37
602.0	26.21
603.0	24.94
604.0	27.32
605.0	28.00
606.0	36.71
607.0	20.59
608.0	22.72
609.0	22.95
610.0	25.22
611.0	22.60
612.0	21.45
613.0	22.61
614.0	17.81
615.0	21.89
616.0	25.35
617.0	20.70
618.0	19.19
619.0	16.65
620.0	20.04
621.0	18.72
622.0	20.53
623.0	18.34
624.0	21.56
625.0	18.85
626.0	19.26
627.0	18.09
628.0	16.55
629.0	14.11
630.0	17.55
631.0	13.64
632.0	15.56
633.0	14.47
634.0	13.25
635.0	14.49
636.0	15.36
637.0	13.46
638.0	13.90
639.0	12.66
640.0	12.67
641.0	15.24
642.0	12.19
643.0	11.60
644.0	9.910
645.0	11.27
646.0	10.38
647.0	12.22
648.0	14.77
649.0	14.84
650.0	10.61
651.0	15.15
652.0	13.46
653.0	11.59
654.0	10.38
655.0	16.26
656.0	13.30
657.0	12.17
658.0	10.83
659.0	15.05
660.0	11.47
661.0	15.09
662.0	12.01
663.0	9.155
664.0	10.50
665.0	9.709
666.0	12.53
667.0	10.83
668.0	10.04
669.0	11.73
670.0	13.51
671.0	10.20
672.0	6.793
673.0	10.91
674.0	8.412
675.0	8.439
676.0	13.58
677.0	13.99
678.0	10.25
679.0	9.019
680.0	8.045
681.0	15.26
682.0	9.621
683.0	11.47
684.0	10.97
685.0	10.89
686.0	11.58
687.0	6.877
688.0	7.356
689.0	8.354
690.0	11.15
691.0	10.91
692.0	10.19
693.0	10.80
694.0	8.750
695.0	10.28
696.0	4.237
697.0	9.666
698.0	6.940
699.0	14.01
700.0	10.90
701.0	10.72
702.0	10.28
703.0	10.57
704.0	11.89
705.0	10.22
706.0	11.96
707.0	8.234
708.0	9.073
709.0	11.52
710.0	8.028
711.0	12.23
712.0	12.13
713.0	9.606
714.0	5.221
715.0	6.280
716.0	7.339
717.0	8.250
718.0	13.58
719.0	8.678
720.0	9.192
721.0	8.278
722.0	8.104
723.0	9.242
724.0	7.980
725.0	12.40
726.0	9.867
727.0	11.44
728.0	10.86
729.0	14.04
730.0	8.347
731.0	10.27
732.0	10.61
733.0	10.70
734.0	10.04
735.0	7.716
736.0	10.11
737.0	12.39
738.0	9.065
739.0	10.57
740.0	8.721
741.0	12.27
742.0	9.387
743.0	7.861
744.0	9.671
745.0	8.925
746.0	11.35
747.0	5.581
748.0	10.98
749.0	8.947
750.0	10.47
751.0	13.75
752.0	10.09
753.0	10.67
754.0	11.31
755.0	7.405
756.0	11.43
757.0	7.786
758.0	8.477
759.0	11.50
760.0	11.65
761.0	10.99
762.0	10.26
763.0	8.555
764.0	5.532
765.0	8.493
766.0	6.921
767.0	13.23
768.0	11.80
769.0	11.57
770.0	11.33
771.0	10.75
772.0	12.19
773.0	12.11
774.0	10.36
775.0	7.320
776.0	9.364
777.0	9.243
778.0	13.97
779.0	14.90
780.0	12.31

Sample:	'wa-19(EM)
File name:	60.FDS
Run Date:	'18:21:15, 07/11/2024
Operator:	WXH
Comment:	'

Instrument
Model:	F-4600 FL Spectrophotometer
Serial Number:	3080-002
ROM Version:	5J24000 02

Instrument Parameters
Measurement type:	Wavelength scan
Scan mode:	Emission
Data mode:	Fluorescence
EX WL:	460.0 nm
EM  Start WL:	480.0 nm
EM  End WL:	780.0 nm
Scan speed:	1200 nm/min
Delay:	0.0 s
EX Slit:	2.5 nm
EM Slit:	2.5 nm
PMT Voltage:	600 V
Response:	Auto 
Corrected spectra:	Off
Shutter control:	On

Peak integration
Integration method:	Rectangular
Sensitivity:	1
Threshold:	1.000

Peaks
No.	Valley(nm)	Valley(Data)
1	482.4	18.86
2	493.4	93.55
3	506.8	295.6
4	509.6	316.1
5	514.4	319.9
6	516.6	289.3
7	522.2	262.9
8	525.8	259.2
9	532.2	222.3
10	536.0	216.1
11	543.4	161.5
12	545.0	158.8
13	548.6	151.4
14	555.6	113.0
15	559.0	99.42
16	561.0	90.60
17	564.8	84.25
18	568.2	72.40
19	572.2	61.86
20	574.6	58.69
21	578.0	47.05
22	581.6	47.17
23	585.0	44.70
24	587.4	38.92
25	591.8	35.51
26	594.4	33.88
27	596.4	31.84
28	599.8	24.75
29	605.8	24.10
30	608.4	19.67
31	612.4	16.56
32	614.0	18.06
33	616.6	18.53
34	619.6	16.46
35	622.2	15.14
36	628.8	12.92
37	632.0	11.08
38	636.4	10.62
39	641.0	11.97
40	645.8	8.860
41	648.4	10.67
42	649.8	11.25
43	654.4	10.00
44	657.0	10.75
45	659.4	8.918
46	662.4	7.623
47	666.0	9.470
48	668.8	9.047
49	672.8	8.471
50	676.2	7.509
51	678.4	9.782
52	679.2	8.284
53	682.8	6.964
54	684.8	6.169
55	687.8	6.828
56	691.2	7.548
57	697.0	6.993
58	700.4	7.651
59	706.2	8.911
60	707.6	6.287
61	712.2	6.519
62	715.4	6.870
63	720.4	7.155
64	724.4	9.069
65	730.0	5.815
66	735.2	7.171
67	738.6	8.972
68	741.6	5.211
69	750.0	7.905
70	754.6	7.882
71	756.0	7.654
72	760.8	5.366
73	765.2	6.479
74	772.6	8.840
75	775.4	6.452
76	778.0	7.913
77	780.0	12.99

Data Points
nm	Data
480.0	19.71
481.0	21.88
482.0	21.47
483.0	21.12
484.0	28.57
485.0	25.21
486.0	40.79
487.0	38.63
488.0	49.08
489.0	50.80
490.0	60.08
491.0	74.54
492.0	90.71
493.0	100.6
494.0	100.0
495.0	132.3
496.0	143.9
497.0	164.8
498.0	165.9
499.0	195.8
500.0	204.5
501.0	237.0
502.0	250.0
503.0	260.8
504.0	276.1
505.0	291.7
506.0	298.9
507.0	299.5
508.0	315.7
509.0	337.2
510.0	318.5
511.0	339.9
512.0	329.8
513.0	332.5
514.0	330.9
515.0	349.6
516.0	313.0
517.0	301.4
518.0	317.1
519.0	298.8
520.0	293.2
521.0	283.4
522.0	275.9
523.0	268.7
524.0	275.4
525.0	267.1
526.0	269.8
527.0	273.1
528.0	272.8
529.0	261.0
530.0	254.0
531.0	244.6
532.0	231.9
533.0	240.7
534.0	242.3
535.0	223.2
536.0	216.1
537.0	202.2
538.0	201.5
539.0	194.3
540.0	198.0
541.0	197.9
542.0	180.8
543.0	170.0
544.0	182.7
545.0	158.8
546.0	174.3
547.0	164.9
548.0	156.8
549.0	158.3
550.0	152.8
551.0	142.0
552.0	137.2
553.0	134.5
554.0	126.7
555.0	117.2
556.0	117.9
557.0	119.9
558.0	113.3
559.0	99.42
560.0	109.0
561.0	90.60
562.0	105.5
563.0	92.55
564.0	92.95
565.0	87.12
566.0	89.98
567.0	77.75
568.0	75.87
569.0	81.05
570.0	74.58
571.0	70.70
572.0	67.74
573.0	70.65
574.0	64.68
575.0	68.04
576.0	62.76
577.0	57.73
578.0	47.05
579.0	57.29
580.0	56.82
581.0	51.41
582.0	56.83
583.0	50.51
584.0	46.90
585.0	44.70
586.0	48.20
587.0	42.79
588.0	46.70
589.0	39.55
590.0	37.62
591.0	43.42
592.0	39.72
593.0	36.68
594.0	35.99
595.0	41.52
596.0	35.30
597.0	34.46
598.0	36.47
599.0	33.16
600.0	26.24
601.0	32.51
602.0	30.46
603.0	24.81
604.0	26.26
605.0	24.47
606.0	24.30
607.0	28.66
608.0	21.99
609.0	21.99
610.0	25.74
611.0	18.33
612.0	18.62
613.0	20.10
614.0	18.06
615.0	21.30
616.0	23.61
617.0	22.05
618.0	21.67
619.0	19.34
620.0	20.62
621.0	22.08
622.0	17.75
623.0	17.88
624.0	19.95
625.0	21.96
626.0	20.50
627.0	19.02
628.0	15.54
629.0	12.96
630.0	17.92
631.0	17.53
632.0	11.08
633.0	16.27
634.0	15.28
635.0	20.71
636.0	14.72
637.0	14.09
638.0	13.68
639.0	15.69
640.0	13.12
641.0	11.97
642.0	13.57
643.0	14.50
644.0	15.33
645.0	11.52
646.0	9.678
647.0	14.37
648.0	11.24
649.0	14.97
650.0	13.52
651.0	15.02
652.0	13.86
653.0	15.05
654.0	11.44
655.0	13.68
656.0	14.52
657.0	10.75
658.0	12.08
659.0	10.58
660.0	13.61
661.0	12.61
662.0	8.993
663.0	13.11
664.0	13.00
665.0	11.67
666.0	9.470
667.0	13.71
668.0	13.14
669.0	9.661
670.0	10.41
671.0	13.15
672.0	11.80
673.0	10.16
674.0	11.50
675.0	10.17
676.0	8.988
677.0	10.40
678.0	11.37
679.0	11.91
680.0	11.72
681.0	15.15
682.0	9.455
683.0	8.855
684.0	8.938
685.0	9.277
686.0	10.73
687.0	10.22
688.0	8.057
689.0	13.95
690.0	12.53
691.0	9.414
692.0	11.54
693.0	12.63
694.0	11.13
695.0	10.55
696.0	13.04
697.0	6.993
698.0	10.68
699.0	10.03
700.0	9.525
701.0	10.30
702.0	14.20
703.0	14.54
704.0	12.37
705.0	10.38
706.0	9.121
707.0	9.885
708.0	7.404
709.0	9.133
710.0	8.394
711.0	10.70
712.0	8.184
713.0	9.373
714.0	8.976
715.0	8.850
716.0	7.388
717.0	10.78
718.0	11.83
719.0	8.839
720.0	7.560
721.0	7.573
722.0	8.013
723.0	10.89
724.0	9.758
725.0	10.36
726.0	7.580
727.0	10.79
728.0	9.765
729.0	10.58
730.0	5.815
731.0	7.765
732.0	12.15
733.0	11.45
734.0	10.13
735.0	8.301
736.0	12.16
737.0	12.02
738.0	10.47
739.0	11.64
740.0	10.59
741.0	7.807
742.0	6.403
743.0	8.575
744.0	13.00
745.0	10.33
746.0	8.531
747.0	10.47
748.0	11.01
749.0	12.31
750.0	7.905
751.0	11.84
752.0	8.253
753.0	9.034
754.0	9.560
755.0	11.25
756.0	7.654
757.0	11.95
758.0	8.798
759.0	9.862
760.0	6.319
761.0	6.994
762.0	10.26
763.0	12.79
764.0	10.72
765.0	7.396
766.0	9.785
767.0	8.284
768.0	11.66
769.0	10.82
770.0	13.18
771.0	13.33
772.0	10.00
773.0	10.96
774.0	13.44
775.0	8.968
776.0	7.271
777.0	10.45
778.0	7.913
779.0	11.71
780.0	12.99

Sample:	'wa-20(EM)
File name:	60.FDS
Run Date:	'18:21:45, 07/11/2024
Operator:	WXH
Comment:	'

Instrument
Model:	F-4600 FL Spectrophotometer
Serial Number:	3080-002
ROM Version:	5J24000 02

Instrument Parameters
Measurement type:	Wavelength scan
Scan mode:	Emission
Data mode:	Fluorescence
EX WL:	460.0 nm
EM  Start WL:	480.0 nm
EM  End WL:	780.0 nm
Scan speed:	1200 nm/min
Delay:	0.0 s
EX Slit:	2.5 nm
EM Slit:	2.5 nm
PMT Voltage:	600 V
Response:	Auto 
Corrected spectra:	Off
Shutter control:	On

Peak integration
Integration method:	Rectangular
Sensitivity:	1
Threshold:	1.000

Peaks
No.	Valley(nm)	Valley(Data)
1	481.6	18.03
2	485.6	32.22
3	511.0	309.5
4	514.4	311.7
5	517.8	309.1
6	528.6	243.6
7	534.8	211.6
8	542.2	180.3
9	551.2	142.9
10	553.6	124.5
11	566.4	75.87
12	570.2	64.82
13	571.6	64.84
14	574.2	57.97
15	578.4	52.57
16	582.0	49.13
17	586.0	40.18
18	590.6	35.65
19	593.2	26.56
20	597.8	31.21
21	601.4	26.24
22	604.6	22.26
23	609.8	19.05
24	614.2	18.43
25	618.8	17.23
26	621.4	16.62
27	623.4	14.35
28	624.4	16.19
29	627.2	14.43
30	631.2	10.69
31	634.4	10.17
32	637.2	13.22
33	639.6	9.235
34	642.0	10.73
35	646.2	7.822
36	654.8	9.313
37	656.0	7.922
38	659.2	8.610
39	662.4	8.272
40	666.2	7.799
41	669.2	7.412
42	671.6	9.138
43	674.4	8.960
44	680.0	8.402
45	684.6	5.919
46	688.0	8.794
47	690.8	6.797
48	694.6	7.522
49	696.2	8.443
50	702.6	6.250
51	707.4	7.194
52	708.8	7.500
53	713.2	9.052
54	716.4	10.22
55	718.2	8.246
56	722.6	8.896
57	728.6	7.170
58	732.4	8.856
59	734.0	6.780
60	737.4	6.832
61	739.6	5.343
62	746.4	7.315
63	749.6	8.620
64	753.2	5.006
65	758.0	8.074
66	760.6	6.623
67	766.4	7.875
68	768.4	6.676
69	776.0	7.210
70	778.4	7.768

Data Points
nm	Data
480.0	20.00
481.0	22.68
482.0	21.15
483.0	27.85
484.0	28.53
485.0	34.11
486.0	34.74
487.0	36.05
488.0	46.14
489.0	49.92
490.0	56.83
491.0	71.24
492.0	92.10
493.0	95.50
494.0	109.3
495.0	126.9
496.0	144.7
497.0	157.2
498.0	168.3
499.0	185.7
500.0	207.6
501.0	225.4
502.0	253.4
503.0	260.1
504.0	274.0
505.0	292.7
506.0	307.3
507.0	299.5
508.0	312.7
509.0	309.7
510.0	334.3
511.0	309.5
512.0	323.4
513.0	310.8
514.0	321.8
515.0	325.0
516.0	320.6
517.0	305.1
518.0	314.5
519.0	317.5
520.0	298.8
521.0	300.5
522.0	303.0
523.0	286.7
524.0	290.6
525.0	287.1
526.0	270.2
527.0	270.1
528.0	263.8
529.0	263.2
530.0	258.7
531.0	253.4
532.0	241.2
533.0	237.9
534.0	216.3
535.0	213.6
536.0	227.1
537.0	219.3
538.0	212.3
539.0	213.4
540.0	204.7
541.0	198.7
542.0	183.7
543.0	195.3
544.0	180.6
545.0	174.4
546.0	170.9
547.0	167.0
548.0	158.1
549.0	153.5
550.0	146.1
551.0	143.9
552.0	152.3
553.0	130.9
554.0	128.9
555.0	127.9
556.0	119.4
557.0	111.2
558.0	104.7
559.0	113.0
560.0	110.5
561.0	104.2
562.0	100.5
563.0	92.46
564.0	89.51
565.0	87.92
566.0	81.99
567.0	81.54
568.0	75.47
569.0	70.40
570.0	64.92
571.0	67.65
572.0	72.51
573.0	66.66
574.0	61.15
575.0	60.61
576.0	65.68
577.0	65.45
578.0	55.33
579.0	60.24
580.0	53.44
581.0	51.28
582.0	49.13
583.0	47.73
584.0	48.76
585.0	49.18
586.0	40.18
587.0	40.46
588.0	47.92
589.0	45.11
590.0	41.65
591.0	47.25
592.0	37.36
593.0	27.52
594.0	30.27
595.0	33.57
596.0	35.46
597.0	36.63
598.0	34.08
599.0	36.57
600.0	33.21
601.0	31.92
602.0	30.57
603.0	32.36
604.0	27.34
605.0	23.81
606.0	22.30
607.0	28.49
608.0	27.51
609.0	23.26
610.0	20.13
611.0	26.10
612.0	23.56
613.0	24.91
614.0	18.65
615.0	26.85
616.0	19.37
617.0	20.60
618.0	18.28
619.0	17.40
620.0	18.92
621.0	18.44
622.0	23.10
623.0	14.41
624.0	17.67
625.0	18.18
626.0	20.89
627.0	14.62
628.0	21.64
629.0	20.94
630.0	16.49
631.0	10.95
632.0	11.12
633.0	13.06
634.0	15.59
635.0	13.32
636.0	16.93
637.0	14.21
638.0	19.19
639.0	12.78
640.0	10.02
641.0	18.06
642.0	10.73
643.0	13.56
644.0	13.45
645.0	10.99
646.0	8.187
647.0	9.755
648.0	9.312
649.0	10.23
650.0	12.40
651.0	14.55
652.0	11.63
653.0	11.67
654.0	10.66
655.0	10.34
656.0	7.922
657.0	11.49
658.0	11.53
659.0	11.63
660.0	11.93
661.0	9.693
662.0	9.463
663.0	9.231
664.0	12.65
665.0	13.24
666.0	9.124
667.0	11.62
668.0	11.38
669.0	9.099
670.0	13.44
671.0	12.97
672.0	11.33
673.0	10.56
674.0	11.43
675.0	11.70
676.0	13.13
677.0	12.71
678.0	12.49
679.0	11.64
680.0	8.402
681.0	9.489
682.0	14.03
683.0	10.33
684.0	8.064
685.0	11.09
686.0	10.46
687.0	13.63
688.0	8.794
689.0	12.44
690.0	9.806
691.0	8.131
692.0	11.59
693.0	7.815
694.0	7.740
695.0	9.600
696.0	9.282
697.0	10.22
698.0	11.54
699.0	13.53
700.0	11.27
701.0	12.12
702.0	8.222
703.0	11.47
704.0	8.052
705.0	9.383
706.0	9.151
707.0	8.875
708.0	9.442
709.0	8.174
710.0	8.716
711.0	11.62
712.0	10.84
713.0	10.84
714.0	12.44
715.0	12.76
716.0	13.51
717.0	12.83
718.0	9.379
719.0	13.06
720.0	9.490
721.0	10.32
722.0	11.42
723.0	9.151
724.0	9.959
725.0	9.865
726.0	13.19
727.0	6.475
728.0	10.16
729.0	10.27
730.0	12.01
731.0	13.46
732.0	11.31
733.0	10.50
734.0	6.780
735.0	9.854
736.0	7.893
737.0	11.33
738.0	7.612
739.0	7.527
740.0	6.725
741.0	5.701
742.0	9.103
743.0	8.794
744.0	11.02
745.0	12.51
746.0	11.35
747.0	7.693
748.0	8.990
749.0	11.29
750.0	10.19
751.0	11.31
752.0	9.364
753.0	6.480
754.0	6.225
755.0	11.42
756.0	10.60
757.0	8.015
758.0	8.074
759.0	13.41
760.0	8.612
761.0	8.157
762.0	9.186
763.0	8.442
764.0	10.14
765.0	10.05
766.0	9.650
767.0	10.99
768.0	8.904
769.0	9.060
770.0	10.17
771.0	11.89
772.0	15.22
773.0	14.88
774.0	11.28
775.0	11.33
776.0	7.210
777.0	10.30
778.0	9.577
779.0	11.79
780.0	9.717

