Sample:	'wa-1(EM)
File name:	80.FDS
Run Date:	'17:53:05, 07/11/2024
Operator:	WXH
Comment:	'

Instrument
Model:	F-4600 FL Spectrophotometer
Serial Number:	3080-002
ROM Version:	5J24000 02

Instrument Parameters
Measurement type:	Wavelength scan
Scan mode:	Emission
Data mode:	Fluorescence
EX WL:	460.0 nm
EM  Start WL:	480.0 nm
EM  End WL:	780.0 nm
Scan speed:	1200 nm/min
Delay:	0.0 s
EX Slit:	2.5 nm
EM Slit:	2.5 nm
PMT Voltage:	600 V
Response:	Auto 
Corrected spectra:	Off
Shutter control:	On

Peak integration
Integration method:	Rectangular
Sensitivity:	1
Threshold:	1.000

Peaks
No.	Valley(nm)	Valley(Data)
1	508.8	549.7
2	511.4	564.6
3	518.0	502.7
4	520.8	508.1
5	523.2	459.9
6	527.2	428.3
7	531.2	410.2
8	544.2	284.1
9	554.8	195.4
10	559.0	160.2
11	563.2	142.8
12	567.8	121.6
13	574.4	100.4
14	577.2	89.05
15	580.6	79.08
16	585.6	66.70
17	589.0	58.82
18	594.0	45.90
19	599.8	39.91
20	604.8	32.94
21	609.2	30.67
22	612.8	25.62
23	615.2	28.64
24	618.4	24.56
25	621.8	18.02
26	626.6	15.72
27	629.8	16.29
28	634.6	14.78
29	636.6	15.22
30	639.2	13.60
31	645.4	12.18
32	646.8	12.15
33	650.4	11.55
34	654.8	11.85
35	657.2	12.64
36	659.8	12.29
37	663.8	9.680
38	669.6	7.849
39	672.2	8.513
40	676.4	9.659
41	679.4	11.12
42	684.2	6.908
43	688.2	8.413
44	692.6	9.427
45	696.0	5.395
46	699.6	6.503
47	702.4	5.790
48	704.4	6.101
49	707.8	6.038
50	709.4	8.685
51	712.0	6.900
52	715.0	4.860
53	719.6	7.864
54	721.2	6.286
55	724.8	5.794
56	728.0	5.274
57	731.2	7.717
58	734.8	7.575
59	736.6	6.834
60	740.2	6.340
61	742.2	7.056
62	746.4	6.412
63	749.6	6.311
64	757.2	7.196
65	760.8	6.171
66	762.4	5.716
67	766.6	9.322
68	770.4	6.667
69	775.0	5.301
70	778.6	7.166

Data Points
nm	Data
480.0	32.51
481.0	20.38
482.0	24.51
483.0	26.20
484.0	35.29
485.0	35.07
486.0	45.23
487.0	53.83
488.0	66.98
489.0	74.94
490.0	96.54
491.0	104.9
492.0	139.0
493.0	144.5
494.0	176.7
495.0	193.9
496.0	240.7
497.0	274.6
498.0	291.3
499.0	311.4
500.0	358.0
501.0	370.8
502.0	433.3
503.0	462.7
504.0	489.5
505.0	495.7
506.0	531.7
507.0	566.1
508.0	554.3
509.0	557.8
510.0	564.6
511.0	584.0
512.0	567.2
513.0	569.9
514.0	591.6
515.0	580.9
516.0	560.9
517.0	553.8
518.0	502.7
519.0	533.4
520.0	513.2
521.0	541.0
522.0	506.6
523.0	464.0
524.0	483.7
525.0	469.9
526.0	463.5
527.0	430.2
528.0	449.6
529.0	420.3
530.0	406.4
531.0	419.8
532.0	427.1
533.0	417.6
534.0	415.7
535.0	362.8
536.0	369.0
537.0	376.5
538.0	361.5
539.0	356.0
540.0	339.2
541.0	326.9
542.0	310.9
543.0	287.5
544.0	292.0
545.0	290.7
546.0	291.0
547.0	263.7
548.0	266.6
549.0	241.4
550.0	232.6
551.0	235.4
552.0	240.3
553.0	216.2
554.0	224.9
555.0	201.3
556.0	208.8
557.0	198.0
558.0	192.3
559.0	160.2
560.0	168.5
561.0	163.1
562.0	162.1
563.0	146.8
564.0	163.7
565.0	140.2
566.0	141.2
567.0	123.1
568.0	124.2
569.0	130.4
570.0	118.6
571.0	123.2
572.0	115.8
573.0	101.9
574.0	106.7
575.0	109.4
576.0	100.2
577.0	95.14
578.0	103.6
579.0	93.37
580.0	88.74
581.0	87.10
582.0	98.64
583.0	92.59
584.0	75.29
585.0	74.84
586.0	67.38
587.0	72.84
588.0	70.40
589.0	58.82
590.0	67.81
591.0	68.19
592.0	56.97
593.0	49.45
594.0	45.90
595.0	59.96
596.0	53.18
597.0	48.37
598.0	48.57
599.0	39.80
600.0	42.30
601.0	43.89
602.0	44.16
603.0	41.90
604.0	38.45
605.0	38.69
606.0	39.10
607.0	38.13
608.0	35.70
609.0	31.50
610.0	38.09
611.0	37.87
612.0	33.16
613.0	31.08
614.0	29.96
615.0	31.51
616.0	28.67
617.0	28.75
618.0	31.18
619.0	28.59
620.0	26.78
621.0	23.27
622.0	20.48
623.0	25.89
624.0	21.64
625.0	21.98
626.0	19.09
627.0	20.70
628.0	21.02
629.0	21.93
630.0	18.72
631.0	20.07
632.0	21.02
633.0	16.61
634.0	19.76
635.0	17.22
636.0	20.72
637.0	18.46
638.0	16.63
639.0	16.49
640.0	16.11
641.0	18.94
642.0	17.84
643.0	15.83
644.0	15.53
645.0	12.97
646.0	14.89
647.0	12.70
648.0	15.62
649.0	13.45
650.0	13.54
651.0	17.61
652.0	16.43
653.0	14.29
654.0	14.14
655.0	13.39
656.0	17.17
657.0	12.75
658.0	13.86
659.0	16.23
660.0	13.09
661.0	14.05
662.0	11.93
663.0	11.66
664.0	12.73
665.0	15.08
666.0	14.00
667.0	14.12
668.0	11.85
669.0	10.33
670.0	10.47
671.0	17.74
672.0	9.520
673.0	13.21
674.0	12.99
675.0	11.96
676.0	12.63
677.0	12.65
678.0	12.40
679.0	14.27
680.0	14.79
681.0	13.05
682.0	13.31
683.0	10.74
684.0	7.549
685.0	8.967
686.0	14.20
687.0	13.44
688.0	9.490
689.0	10.17
690.0	10.97
691.0	12.58
692.0	10.43
693.0	13.80
694.0	11.42
695.0	7.194
696.0	5.395
697.0	8.649
698.0	7.778
699.0	7.986
700.0	6.647
701.0	10.35
702.0	9.109
703.0	8.009
704.0	7.196
705.0	8.453
706.0	8.879
707.0	10.08
708.0	9.312
709.0	11.26
710.0	9.722
711.0	11.68
712.0	6.900
713.0	9.347
714.0	8.224
715.0	4.860
716.0	9.249
717.0	13.86
718.0	12.16
719.0	9.300
720.0	12.31
721.0	8.335
722.0	8.949
723.0	6.570
724.0	9.795
725.0	8.792
726.0	13.50
727.0	8.993
728.0	5.274
729.0	5.721
730.0	9.500
731.0	8.870
732.0	8.850
733.0	8.814
734.0	8.746
735.0	8.496
736.0	11.13
737.0	9.150
738.0	9.876
739.0	9.382
740.0	6.517
741.0	8.069
742.0	8.373
743.0	7.683
744.0	7.689
745.0	7.973
746.0	7.157
747.0	8.928
748.0	7.094
749.0	8.302
750.0	10.47
751.0	10.09
752.0	14.00
753.0	10.29
754.0	7.883
755.0	9.348
756.0	7.905
757.0	8.178
758.0	10.70
759.0	9.654
760.0	7.361
761.0	6.526
762.0	7.594
763.0	8.437
764.0	8.242
765.0	12.40
766.0	10.91
767.0	9.709
768.0	10.94
769.0	7.954
770.0	7.905
771.0	7.992
772.0	7.676
773.0	9.195
774.0	14.59
775.0	5.301
776.0	8.721
777.0	12.81
778.0	8.837
779.0	7.811
780.0	9.355

Sample:	'wa-2(EM)
File name:	80.FDS
Run Date:	'17:53:35, 07/11/2024
Operator:	WXH
Comment:	'

Instrument
Model:	F-4600 FL Spectrophotometer
Serial Number:	3080-002
ROM Version:	5J24000 02

Instrument Parameters
Measurement type:	Wavelength scan
Scan mode:	Emission
Data mode:	Fluorescence
EX WL:	460.0 nm
EM  Start WL:	480.0 nm
EM  End WL:	780.0 nm
Scan speed:	1200 nm/min
Delay:	0.0 s
EX Slit:	2.5 nm
EM Slit:	2.5 nm
PMT Voltage:	600 V
Response:	Auto 
Corrected spectra:	Off
Shutter control:	On

Peak integration
Integration method:	Rectangular
Sensitivity:	1
Threshold:	1.000

Peaks
No.	Valley(nm)	Valley(Data)
1	512.8	566.1
2	521.8	474.2
3	525.0	452.5
4	527.0	438.4
5	529.2	435.7
6	531.6	387.8
7	534.8	385.1
8	542.2	296.0
9	550.2	224.5
10	554.0	197.6
11	557.8	176.6
12	559.4	171.2
13	566.8	120.7
14	569.6	114.9
15	576.0	92.69
16	583.4	79.70
17	585.0	69.41
18	586.8	69.75
19	592.4	53.63
20	594.8	46.38
21	596.6	51.33
22	604.0	34.72
23	609.4	32.36
24	612.4	29.74
25	615.6	24.43
26	623.0	21.34
27	625.0	21.08
28	627.2	19.74
29	631.6	14.76
30	634.4	16.06
31	638.0	15.53
32	639.6	14.67
33	642.0	12.05
34	644.0	12.63
35	647.8	10.62
36	650.4	9.892
37	654.0	12.33
38	659.4	8.616
39	662.6	6.610
40	665.4	4.854
41	668.8	6.946
42	671.0	9.950
43	673.0	8.111
44	680.0	7.499
45	682.0	6.935
46	684.4	6.555
47	688.4	7.708
48	691.0	6.639
49	698.0	7.423
50	703.6	6.828
51	706.0	6.348
52	708.6	7.100
53	710.8	8.376
54	716.2	4.953
55	720.4	7.387
56	725.8	7.577
57	727.4	7.714
58	730.4	6.817
59	735.2	5.487
60	738.6	7.636
61	740.2	5.710
62	742.4	6.989
63	744.2	7.291
64	750.0	6.423
65	755.0	5.010
66	763.2	4.852
67	766.2	5.066
68	769.2	6.800
69	771.4	7.307
70	775.0	7.170
71	780.0	6.216

Data Points
nm	Data
480.0	28.20
481.0	24.34
482.0	29.49
483.0	24.41
484.0	32.37
485.0	44.13
486.0	52.13
487.0	51.58
488.0	58.35
489.0	78.75
490.0	94.66
491.0	117.8
492.0	131.3
493.0	152.1
494.0	160.6
495.0	197.3
496.0	248.7
497.0	256.8
498.0	296.9
499.0	340.6
500.0	387.4
501.0	400.1
502.0	432.5
503.0	451.0
504.0	461.9
505.0	498.6
506.0	510.7
507.0	553.9
508.0	578.6
509.0	613.5
510.0	581.3
511.0	583.2
512.0	593.7
513.0	578.6
514.0	561.6
515.0	566.1
516.0	533.8
517.0	523.2
518.0	525.0
519.0	521.5
520.0	525.0
521.0	504.0
522.0	475.6
523.0	490.3
524.0	486.3
525.0	452.5
526.0	482.6
527.0	438.4
528.0	446.5
529.0	437.7
530.0	447.3
531.0	414.6
532.0	402.1
533.0	410.9
534.0	387.7
535.0	398.0
536.0	384.1
537.0	378.3
538.0	355.4
539.0	356.0
540.0	325.1
541.0	334.6
542.0	307.2
543.0	310.4
544.0	305.2
545.0	292.4
546.0	289.5
547.0	273.9
548.0	271.9
549.0	245.1
550.0	238.7
551.0	252.3
552.0	233.9
553.0	215.1
554.0	197.6
555.0	212.6
556.0	191.4
557.0	196.1
558.0	179.7
559.0	178.5
560.0	177.6
561.0	172.3
562.0	151.5
563.0	165.3
564.0	148.1
565.0	140.0
566.0	121.7
567.0	124.0
568.0	127.2
569.0	123.5
570.0	124.2
571.0	123.5
572.0	125.1
573.0	116.6
574.0	96.34
575.0	101.8
576.0	92.69
577.0	104.1
578.0	99.58
579.0	88.31
580.0	87.15
581.0	86.27
582.0	85.00
583.0	87.77
584.0	89.48
585.0	69.41
586.0	76.21
587.0	72.53
588.0	77.07
589.0	69.14
590.0	63.21
591.0	64.93
592.0	55.86
593.0	59.72
594.0	56.83
595.0	51.17
596.0	60.97
597.0	56.39
598.0	49.71
599.0	47.91
600.0	46.23
601.0	41.90
602.0	45.15
603.0	35.42
604.0	34.72
605.0	34.47
606.0	40.30
607.0	38.82
608.0	35.94
609.0	36.45
610.0	44.13
611.0	39.07
612.0	34.52
613.0	35.91
614.0	32.43
615.0	27.85
616.0	31.24
617.0	29.66
618.0	31.39
619.0	22.30
620.0	25.54
621.0	31.37
622.0	23.24
623.0	21.34
624.0	22.79
625.0	21.08
626.0	22.19
627.0	20.27
628.0	24.01
629.0	26.10
630.0	23.53
631.0	19.75
632.0	20.45
633.0	20.38
634.0	18.39
635.0	17.20
636.0	18.49
637.0	17.30
638.0	15.53
639.0	17.91
640.0	17.48
641.0	19.21
642.0	12.05
643.0	13.94
644.0	12.63
645.0	13.65
646.0	13.11
647.0	12.88
648.0	12.64
649.0	16.94
650.0	13.12
651.0	15.66
652.0	16.80
653.0	14.85
654.0	12.33
655.0	14.08
656.0	14.70
657.0	13.42
658.0	11.17
659.0	11.61
660.0	14.79
661.0	11.82
662.0	9.613
663.0	8.587
664.0	11.55
665.0	10.02
666.0	11.13
667.0	13.35
668.0	14.35
669.0	8.010
670.0	10.04
671.0	9.950
672.0	11.12
673.0	8.111
674.0	12.08
675.0	13.25
676.0	12.16
677.0	14.41
678.0	9.414
679.0	7.387
680.0	7.499
681.0	12.50
682.0	6.935
683.0	11.17
684.0	10.03
685.0	7.150
686.0	11.60
687.0	10.33
688.0	9.266
689.0	11.03
690.0	8.491
691.0	6.639
692.0	8.170
693.0	10.36
694.0	11.39
695.0	14.07
696.0	9.615
697.0	8.067
698.0	7.423
699.0	9.944
700.0	9.852
701.0	11.87
702.0	8.939
703.0	8.627
704.0	8.766
705.0	11.94
706.0	6.348
707.0	8.693
708.0	9.945
709.0	9.339
710.0	12.39
711.0	9.350
712.0	9.832
713.0	10.52
714.0	10.12
715.0	7.589
716.0	6.858
717.0	8.126
718.0	11.90
719.0	11.05
720.0	9.642
721.0	8.840
722.0	8.556
723.0	10.16
724.0	14.14
725.0	10.24
726.0	9.481
727.0	10.37
728.0	11.04
729.0	11.06
730.0	9.341
731.0	11.13
732.0	9.648
733.0	10.12
734.0	10.17
735.0	5.683
736.0	8.891
737.0	12.24
738.0	7.747
739.0	10.57
740.0	6.655
741.0	8.775
742.0	7.994
743.0	9.893
744.0	9.321
745.0	9.233
746.0	8.758
747.0	6.790
748.0	7.705
749.0	9.159
750.0	6.423
751.0	7.763
752.0	7.632
753.0	5.079
754.0	6.153
755.0	5.010
756.0	6.571
757.0	8.873
758.0	9.974
759.0	10.64
760.0	14.39
761.0	10.31
762.0	6.880
763.0	5.591
764.0	10.02
765.0	8.769
766.0	5.691
767.0	11.79
768.0	9.797
769.0	7.584
770.0	8.941
771.0	8.013
772.0	9.614
773.0	12.82
774.0	8.519
775.0	7.170
776.0	9.436
777.0	11.32
778.0	10.52
779.0	5.752
780.0	6.216

Sample:	'wa-3(EM)
File name:	80.FDS
Run Date:	'17:54:05, 07/11/2024
Operator:	WXH
Comment:	'

Instrument
Model:	F-4600 FL Spectrophotometer
Serial Number:	3080-002
ROM Version:	5J24000 02

Instrument Parameters
Measurement type:	Wavelength scan
Scan mode:	Emission
Data mode:	Fluorescence
EX WL:	460.0 nm
EM  Start WL:	480.0 nm
EM  End WL:	780.0 nm
Scan speed:	1200 nm/min
Delay:	0.0 s
EX Slit:	2.5 nm
EM Slit:	2.5 nm
PMT Voltage:	600 V
Response:	Auto 
Corrected spectra:	Off
Shutter control:	On

Peak integration
Integration method:	Rectangular
Sensitivity:	1
Threshold:	1.000

Peaks
No.	Valley(nm)	Valley(Data)
1	507.4	541.3
2	517.8	527.0
3	519.8	495.6
4	524.0	449.5
5	527.4	449.0
6	539.6	342.0
7	560.8	149.7
8	568.0	122.4
9	572.4	103.0
10	576.0	90.20
11	579.4	85.10
12	584.2	73.79
13	589.4	58.48
14	593.0	55.22
15	596.4	44.50
16	605.4	35.70
17	610.0	31.50
18	611.8	26.28
19	616.0	23.60
20	621.0	23.46
21	624.2	20.71
22	628.4	18.65
23	632.2	10.49
24	635.6	12.23
25	639.4	11.90
26	645.0	15.13
27	650.4	8.102
28	654.8	9.580
29	657.6	8.700
30	662.6	10.08
31	666.6	9.415
32	667.8	11.14
33	672.0	6.157
34	676.8	7.732
35	683.6	7.435
36	685.4	6.876
37	688.8	7.541
38	696.2	5.958
39	699.8	7.082
40	702.0	8.333
41	704.0	8.332
42	706.2	8.047
43	707.8	7.431
44	710.6	6.851
45	713.4	5.614
46	720.6	6.117
47	725.4	6.033
48	731.4	8.197
49	733.2	6.165
50	736.6	7.639
51	741.6	6.022
52	744.8	8.332
53	747.4	8.193
54	750.2	5.341
55	754.4	4.595
56	758.4	7.521
57	761.4	5.640
58	763.2	7.076
59	766.0	9.269
60	771.0	4.767
61	774.6	5.138
62	777.4	6.884

Data Points
nm	Data
480.0	25.97
481.0	28.11
482.0	26.90
483.0	30.48
484.0	36.53
485.0	48.78
486.0	53.24
487.0	58.32
488.0	70.31
489.0	84.66
490.0	89.81
491.0	106.1
492.0	150.0
493.0	154.8
494.0	175.5
495.0	190.9
496.0	232.7
497.0	277.7
498.0	291.9
499.0	311.5
500.0	367.5
501.0	396.3
502.0	427.8
503.0	470.1
504.0	500.2
505.0	502.9
506.0	528.2
507.0	570.7
508.0	560.8
509.0	583.3
510.0	586.8
511.0	583.6
512.0	575.6
513.0	585.1
514.0	591.7
515.0	585.5
516.0	552.4
517.0	545.2
518.0	535.3
519.0	532.9
520.0	519.3
521.0	524.7
522.0	511.1
523.0	488.9
524.0	449.5
525.0	487.6
526.0	462.5
527.0	454.9
528.0	463.3
529.0	431.2
530.0	424.0
531.0	402.4
532.0	413.9
533.0	405.8
534.0	387.8
535.0	371.9
536.0	365.1
537.0	374.3
538.0	372.6
539.0	347.7
540.0	352.8
541.0	359.7
542.0	312.8
543.0	320.4
544.0	301.1
545.0	296.6
546.0	294.5
547.0	286.2
548.0	243.4
549.0	255.9
550.0	244.8
551.0	245.9
552.0	238.9
553.0	224.0
554.0	221.1
555.0	215.4
556.0	198.9
557.0	192.5
558.0	186.7
559.0	177.1
560.0	174.7
561.0	158.6
562.0	168.3
563.0	152.8
564.0	145.8
565.0	140.7
566.0	130.7
567.0	132.6
568.0	122.4
569.0	123.3
570.0	121.3
571.0	118.5
572.0	118.3
573.0	114.6
574.0	106.7
575.0	98.65
576.0	90.20
577.0	102.8
578.0	94.42
579.0	90.23
580.0	93.75
581.0	85.50
582.0	88.34
583.0	83.25
584.0	81.21
585.0	82.06
586.0	76.50
587.0	70.64
588.0	69.54
589.0	67.67
590.0	61.87
591.0	62.64
592.0	68.58
593.0	55.22
594.0	58.77
595.0	64.57
596.0	53.49
597.0	51.24
598.0	51.73
599.0	50.60
600.0	45.71
601.0	48.61
602.0	44.64
603.0	41.10
604.0	43.94
605.0	39.96
606.0	42.03
607.0	41.32
608.0	35.42
609.0	37.46
610.0	31.50
611.0	32.06
612.0	30.24
613.0	33.32
614.0	34.25
615.0	31.85
616.0	23.60
617.0	27.39
618.0	33.36
619.0	32.18
620.0	26.10
621.0	23.46
622.0	30.49
623.0	25.98
624.0	23.19
625.0	22.03
626.0	22.32
627.0	21.92
628.0	18.80
629.0	21.83
630.0	22.04
631.0	21.02
632.0	13.45
633.0	15.80
634.0	18.69
635.0	18.39
636.0	18.03
637.0	22.78
638.0	19.08
639.0	13.47
640.0	15.20
641.0	18.23
642.0	22.25
643.0	23.51
644.0	16.56
645.0	15.13
646.0	17.15
647.0	17.05
648.0	21.00
649.0	11.49
650.0	11.56
651.0	14.56
652.0	13.49
653.0	11.83
654.0	12.85
655.0	10.73
656.0	14.26
657.0	11.57
658.0	11.94
659.0	9.619
660.0	13.41
661.0	16.81
662.0	13.58
663.0	12.54
664.0	11.99
665.0	12.79
666.0	12.95
667.0	13.58
668.0	12.12
669.0	11.81
670.0	12.38
671.0	12.77
672.0	6.157
673.0	8.032
674.0	8.289
675.0	8.537
676.0	12.48
677.0	10.81
678.0	15.76
679.0	14.13
680.0	10.84
681.0	11.93
682.0	10.74
683.0	8.510
684.0	10.74
685.0	7.619
686.0	8.106
687.0	9.601
688.0	13.04
689.0	9.031
690.0	12.82
691.0	11.73
692.0	13.74
693.0	14.34
694.0	11.79
695.0	6.313
696.0	6.265
697.0	7.159
698.0	9.815
699.0	10.31
700.0	9.044
701.0	10.31
702.0	8.333
703.0	12.02
704.0	8.332
705.0	12.90
706.0	9.530
707.0	13.55
708.0	9.269
709.0	9.704
710.0	8.511
711.0	7.882
712.0	8.321
713.0	6.508
714.0	9.569
715.0	8.299
716.0	8.394
717.0	12.31
718.0	10.86
719.0	7.597
720.0	8.621
721.0	9.798
722.0	13.68
723.0	11.43
724.0	10.60
725.0	8.322
726.0	7.595
727.0	7.220
728.0	9.271
729.0	12.55
730.0	11.29
731.0	9.896
732.0	10.91
733.0	8.502
734.0	10.87
735.0	8.735
736.0	8.435
737.0	11.72
738.0	11.36
739.0	15.24
740.0	8.717
741.0	9.897
742.0	6.476
743.0	10.32
744.0	10.10
745.0	8.603
746.0	15.87
747.0	10.76
748.0	12.90
749.0	9.443
750.0	5.691
751.0	7.677
752.0	11.11
753.0	12.11
754.0	6.687
755.0	7.616
756.0	7.188
757.0	11.57
758.0	9.488
759.0	15.19
760.0	9.178
761.0	7.503
762.0	12.76
763.0	8.769
764.0	8.376
765.0	12.00
766.0	9.269
767.0	10.09
768.0	13.13
769.0	9.561
770.0	8.471
771.0	4.767
772.0	10.09
773.0	10.28
774.0	6.269
775.0	9.621
776.0	11.55
777.0	9.285
778.0	9.044
779.0	11.76
780.0	11.22

Sample:	'wa-4(EM)
File name:	80.FDS
Run Date:	'17:54:35, 07/11/2024
Operator:	WXH
Comment:	'

Instrument
Model:	F-4600 FL Spectrophotometer
Serial Number:	3080-002
ROM Version:	5J24000 02

Instrument Parameters
Measurement type:	Wavelength scan
Scan mode:	Emission
Data mode:	Fluorescence
EX WL:	460.0 nm
EM  Start WL:	480.0 nm
EM  End WL:	780.0 nm
Scan speed:	1200 nm/min
Delay:	0.0 s
EX Slit:	2.5 nm
EM Slit:	2.5 nm
PMT Voltage:	600 V
Response:	Auto 
Corrected spectra:	Off
Shutter control:	On

Peak integration
Integration method:	Rectangular
Sensitivity:	1
Threshold:	1.000

Peaks
No.	Valley(nm)	Valley(Data)
1	507.2	538.2
2	509.0	534.8
3	510.2	574.9
4	512.0	571.1
5	521.6	480.7
6	524.6	463.7
7	527.8	427.9
8	529.6	405.8
9	535.4	361.5
10	538.8	337.7
11	546.2	260.8
12	558.0	172.0
13	562.4	143.7
14	567.6	120.5
15	571.6	109.0
16	579.4	76.03
17	583.2	76.48
18	586.2	66.21
19	589.2	58.14
20	593.8	48.69
21	596.2	48.99
22	599.8	42.41
23	602.0	40.06
24	605.4	34.00
25	607.2	34.79
26	610.6	31.28
27	614.0	25.29
28	626.6	17.11
29	629.8	17.25
30	633.6	14.69
31	639.4	13.58
32	642.6	15.30
33	647.0	12.06
34	650.4	9.743
35	653.8	8.150
36	657.2	10.49
37	661.6	10.45
38	666.0	8.489
39	670.4	9.763
40	672.8	7.297
41	675.8	7.276
42	681.0	8.237
43	685.0	7.182
44	688.6	9.700
45	692.2	6.125
46	694.8	6.200
47	697.6	9.131
48	700.0	6.951
49	704.6	6.922
50	706.8	8.789
51	709.8	6.098
52	720.4	6.417
53	723.0	6.823
54	725.4	6.565
55	729.4	6.852
56	734.2	5.803
57	736.6	6.738
58	740.4	6.213
59	745.4	4.966
60	751.8	5.684
61	754.0	6.092
62	756.4	8.217
63	758.6	6.910
64	763.2	9.129
65	765.8	6.788
66	768.6	8.166
67	771.0	7.216
68	774.4	7.847
69	777.2	7.851
70	780.0	7.669

Data Points
nm	Data
480.0	25.21
481.0	23.31
482.0	21.15
483.0	28.85
484.0	33.05
485.0	37.53
486.0	43.89
487.0	60.43
488.0	69.26
489.0	86.65
490.0	103.6
491.0	114.8
492.0	125.3
493.0	156.1
494.0	163.6
495.0	201.3
496.0	237.5
497.0	288.0
498.0	302.4
499.0	334.2
500.0	374.6
501.0	395.3
502.0	419.3
503.0	457.7
504.0	513.2
505.0	545.7
506.0	548.8
507.0	543.2
508.0	551.2
509.0	534.8
510.0	584.9
511.0	589.6
512.0	571.1
513.0	593.2
514.0	560.1
515.0	579.9
516.0	553.6
517.0	532.1
518.0	524.2
519.0	521.3
520.0	492.1
521.0	502.6
522.0	491.2
523.0	474.1
524.0	487.2
525.0	469.8
526.0	472.8
527.0	460.7
528.0	434.9
529.0	445.0
530.0	428.8
531.0	440.9
532.0	423.5
533.0	393.4
534.0	403.3
535.0	379.2
536.0	383.9
537.0	354.4
538.0	358.9
539.0	342.9
540.0	368.2
541.0	335.4
542.0	333.9
543.0	323.7
544.0	301.0
545.0	291.6
546.0	262.9
547.0	281.8
548.0	265.3
549.0	271.1
550.0	249.4
551.0	224.7
552.0	223.8
553.0	227.0
554.0	210.1
555.0	216.9
556.0	209.8
557.0	201.4
558.0	172.0
559.0	194.5
560.0	163.8
561.0	166.8
562.0	149.5
563.0	160.3
564.0	144.1
565.0	147.4
566.0	145.4
567.0	130.6
568.0	125.6
569.0	123.2
570.0	120.7
571.0	109.4
572.0	113.4
573.0	110.7
574.0	116.4
575.0	108.3
576.0	100.9
577.0	96.27
578.0	88.40
579.0	82.94
580.0	88.58
581.0	92.07
582.0	83.90
583.0	76.74
584.0	87.03
585.0	78.14
586.0	71.23
587.0	73.60
588.0	61.16
589.0	64.10
590.0	61.29
591.0	59.07
592.0	57.58
593.0	54.92
594.0	52.25
595.0	55.35
596.0	52.21
597.0	56.47
598.0	51.72
599.0	48.06
600.0	51.06
601.0	51.72
602.0	40.06
603.0	46.29
604.0	41.46
605.0	37.37
606.0	39.83
607.0	36.36
608.0	38.17
609.0	40.41
610.0	38.05
611.0	38.00
612.0	33.09
613.0	35.66
614.0	25.29
615.0	32.73
616.0	34.01
617.0	29.12
618.0	30.27
619.0	26.98
620.0	25.42
621.0	28.08
622.0	25.96
623.0	25.64
624.0	19.24
625.0	18.25
626.0	20.34
627.0	19.85
628.0	20.66
629.0	22.54
630.0	19.79
631.0	25.29
632.0	25.93
633.0	19.22
634.0	16.99
635.0	17.99
636.0	20.75
637.0	17.31
638.0	14.61
639.0	13.86
640.0	18.24
641.0	14.69
642.0	18.60
643.0	20.45
644.0	21.18
645.0	16.61
646.0	14.01
647.0	12.06
648.0	15.48
649.0	13.77
650.0	13.70
651.0	11.04
652.0	15.58
653.0	12.32
654.0	8.218
655.0	12.61
656.0	13.50
657.0	11.37
658.0	14.47
659.0	14.98
660.0	13.10
661.0	10.93
662.0	11.97
663.0	14.24
664.0	14.87
665.0	10.96
666.0	8.489
667.0	12.89
668.0	14.36
669.0	14.60
670.0	12.87
671.0	12.81
672.0	13.85
673.0	8.009
674.0	8.976
675.0	9.571
676.0	8.438
677.0	10.67
678.0	14.69
679.0	11.91
680.0	9.684
681.0	8.237
682.0	9.977
683.0	10.30
684.0	9.862
685.0	7.182
686.0	10.50
687.0	9.136
688.0	12.98
689.0	11.14
690.0	11.46
691.0	12.35
692.0	7.264
693.0	7.149
694.0	8.947
695.0	7.898
696.0	11.68
697.0	13.10
698.0	9.502
699.0	11.19
700.0	6.951
701.0	10.52
702.0	11.71
703.0	11.56
704.0	9.262
705.0	10.61
706.0	9.945
707.0	9.183
708.0	12.01
709.0	8.814
710.0	7.145
711.0	11.18
712.0	6.750
713.0	7.675
714.0	7.509
715.0	6.996
716.0	11.43
717.0	9.100
718.0	8.457
719.0	10.52
720.0	8.727
721.0	7.267
722.0	9.074
723.0	6.823
724.0	8.865
725.0	10.59
726.0	11.13
727.0	8.753
728.0	8.272
729.0	9.972
730.0	7.998
731.0	9.220
732.0	7.616
733.0	6.263
734.0	7.425
735.0	12.28
736.0	7.318
737.0	9.243
738.0	10.50
739.0	9.645
740.0	8.061
741.0	10.17
742.0	10.37
743.0	10.18
744.0	9.350
745.0	9.032
746.0	7.387
747.0	8.149
748.0	11.16
749.0	11.41
750.0	9.200
751.0	7.744
752.0	5.858
753.0	8.939
754.0	6.092
755.0	9.831
756.0	8.384
757.0	11.27
758.0	9.180
759.0	10.32
760.0	11.32
761.0	13.76
762.0	10.10
763.0	11.62
764.0	10.85
765.0	10.33
766.0	11.06
767.0	9.934
768.0	9.594
769.0	10.68
770.0	11.15
771.0	7.216
772.0	10.34
773.0	10.46
774.0	8.553
775.0	9.071
776.0	8.346
777.0	7.880
778.0	9.037
779.0	9.307
780.0	7.669

Sample:	'wa-5(EM)
File name:	80.FDS
Run Date:	'17:55:05, 07/11/2024
Operator:	WXH
Comment:	'

Instrument
Model:	F-4600 FL Spectrophotometer
Serial Number:	3080-002
ROM Version:	5J24000 02

Instrument Parameters
Measurement type:	Wavelength scan
Scan mode:	Emission
Data mode:	Fluorescence
EX WL:	460.0 nm
EM  Start WL:	480.0 nm
EM  End WL:	780.0 nm
Scan speed:	1200 nm/min
Delay:	0.0 s
EX Slit:	2.5 nm
EM Slit:	2.5 nm
PMT Voltage:	600 V
Response:	Auto 
Corrected spectra:	Off
Shutter control:	On

Peak integration
Integration method:	Rectangular
Sensitivity:	1
Threshold:	1.000

Peaks
No.	Valley(nm)	Valley(Data)
1	482.4	23.62
2	508.8	553.7
3	510.4	554.0
4	515.6	533.6
5	518.2	524.1
6	520.6	497.3
7	525.2	435.7
8	534.2	385.2
9	553.2	207.6
10	555.2	187.5
11	559.6	156.1
12	562.8	150.6
13	566.0	137.7
14	568.2	119.3
15	575.8	94.15
16	577.0	97.60
17	579.6	78.10
18	582.0	80.65
19	584.6	70.18
20	588.2	58.74
21	590.2	54.44
22	591.6	57.08
23	597.4	45.25
24	600.0	44.53
25	604.4	32.91
26	606.0	36.40
27	610.8	27.19
28	615.6	28.42
29	619.0	29.91
30	622.8	20.00
31	625.4	21.50
32	629.8	12.67
33	636.0	11.17
34	639.6	12.37
35	644.4	10.62
36	646.2	12.45
37	651.8	9.796
38	657.6	10.35
39	660.4	10.94
40	662.6	11.73
41	665.2	9.916
42	669.2	7.328
43	674.0	5.981
44	677.4	9.035
45	681.8	6.778
46	684.4	6.356
47	687.6	7.506
48	694.4	9.384
49	700.8	6.251
50	704.2	7.828
51	708.0	6.225
52	710.0	5.541
53	713.8	8.152
54	717.0	6.672
55	721.6	6.636
56	725.2	5.714
57	729.4	7.638
58	732.6	7.013
59	740.4	8.838
60	743.2	8.137
61	745.2	7.134
62	748.6	7.377
63	754.2	8.173
64	757.0	8.174
65	762.4	6.633
66	765.6	7.003
67	768.8	5.936
68	773.4	7.028
69	776.2	8.795

Data Points
nm	Data
480.0	15.52
481.0	25.24
482.0	27.22
483.0	26.13
484.0	38.64
485.0	40.70
486.0	39.22
487.0	58.13
488.0	67.39
489.0	79.93
490.0	89.00
491.0	111.2
492.0	134.7
493.0	149.8
494.0	178.4
495.0	217.9
496.0	230.4
497.0	270.2
498.0	309.7
499.0	339.7
500.0	373.1
501.0	392.1
502.0	430.6
503.0	464.6
504.0	488.2
505.0	525.2
506.0	540.2
507.0	554.9
508.0	577.0
509.0	564.8
510.0	565.7
511.0	568.3
512.0	560.7
513.0	567.5
514.0	545.9
515.0	561.7
516.0	554.6
517.0	542.7
518.0	528.6
519.0	541.6
520.0	526.4
521.0	532.3
522.0	525.7
523.0	497.0
524.0	485.7
525.0	449.6
526.0	463.8
527.0	451.6
528.0	453.1
529.0	434.3
530.0	428.2
531.0	431.4
532.0	420.5
533.0	404.5
534.0	394.5
535.0	400.5
536.0	381.7
537.0	372.2
538.0	364.4
539.0	351.0
540.0	335.7
541.0	336.3
542.0	324.3
543.0	323.7
544.0	309.5
545.0	298.7
546.0	268.4
547.0	270.5
548.0	262.3
549.0	258.8
550.0	249.0
551.0	231.4
552.0	228.2
553.0	209.9
554.0	221.3
555.0	201.2
556.0	218.2
557.0	199.4
558.0	196.8
559.0	171.2
560.0	180.1
561.0	157.3
562.0	157.4
563.0	160.5
564.0	139.1
565.0	139.5
566.0	137.7
567.0	142.6
568.0	127.1
569.0	130.9
570.0	121.1
571.0	119.7
572.0	121.7
573.0	104.9
574.0	112.2
575.0	98.02
576.0	99.90
577.0	97.60
578.0	102.7
579.0	98.63
580.0	90.59
581.0	91.81
582.0	80.65
583.0	87.32
584.0	74.46
585.0	78.83
586.0	77.77
587.0	70.51
588.0	65.47
589.0	74.42
590.0	55.20
591.0	66.34
592.0	62.28
593.0	61.43
594.0	60.64
595.0	56.10
596.0	54.24
597.0	47.40
598.0	50.34
599.0	46.02
600.0	44.53
601.0	55.64
602.0	45.64
603.0	42.45
604.0	36.45
605.0	38.99
606.0	36.40
607.0	42.45
608.0	43.79
609.0	39.29
610.0	33.46
611.0	28.54
612.0	37.07
613.0	42.42
614.0	32.54
615.0	29.26
616.0	28.57
617.0	33.33
618.0	33.73
619.0	29.91
620.0	32.75
621.0	27.55
622.0	26.12
623.0	22.78
624.0	27.82
625.0	24.11
626.0	24.08
627.0	25.29
628.0	21.46
629.0	17.15
630.0	16.21
631.0	19.66
632.0	24.33
633.0	20.90
634.0	20.99
635.0	20.67
636.0	11.17
637.0	15.88
638.0	20.68
639.0	17.72
640.0	14.73
641.0	15.69
642.0	18.46
643.0	15.43
644.0	13.56
645.0	14.70
646.0	14.88
647.0	20.05
648.0	15.26
649.0	16.49
650.0	13.33
651.0	12.43
652.0	14.19
653.0	13.68
654.0	14.18
655.0	11.16
656.0	12.03
657.0	11.66
658.0	10.50
659.0	15.12
660.0	12.28
661.0	12.20
662.0	15.45
663.0	14.48
664.0	14.06
665.0	10.40
666.0	12.55
667.0	11.23
668.0	7.848
669.0	8.575
670.0	9.281
671.0	10.64
672.0	9.215
673.0	10.09
674.0	5.981
675.0	10.64
676.0	11.81
677.0	9.172
678.0	10.35
679.0	10.15
680.0	10.88
681.0	9.737
682.0	8.653
683.0	9.718
684.0	10.79
685.0	7.611
686.0	9.171
687.0	7.770
688.0	10.12
689.0	11.38
690.0	11.38
691.0	11.67
692.0	11.23
693.0	10.80
694.0	9.589
695.0	12.02
696.0	12.96
697.0	9.748
698.0	12.30
699.0	8.502
700.0	10.12
701.0	7.779
702.0	12.86
703.0	9.016
704.0	8.907
705.0	9.884
706.0	10.08
707.0	9.909
708.0	6.225
709.0	8.295
710.0	5.541
711.0	8.013
712.0	10.72
713.0	10.06
714.0	9.035
715.0	14.16
716.0	9.352
717.0	6.672
718.0	7.422
719.0	6.631
720.0	10.52
721.0	11.56
722.0	6.779
723.0	10.13
724.0	9.169
725.0	7.911
726.0	7.115
727.0	9.393
728.0	11.04
729.0	9.321
730.0	8.450
731.0	11.82
732.0	7.447
733.0	7.175
734.0	12.38
735.0	10.91
736.0	13.10
737.0	11.21
738.0	10.89
739.0	9.948
740.0	11.13
741.0	9.736
742.0	13.22
743.0	10.02
744.0	9.724
745.0	10.03
746.0	7.737
747.0	10.28
748.0	11.45
749.0	8.142
750.0	11.69
751.0	9.057
752.0	9.288
753.0	9.190
754.0	8.523
755.0	10.68
756.0	11.69
757.0	8.174
758.0	9.441
759.0	13.42
760.0	12.26
761.0	8.500
762.0	8.443
763.0	7.004
764.0	10.70
765.0	8.150
766.0	8.700
767.0	10.36
768.0	5.903
769.0	6.859
770.0	9.444
771.0	13.89
772.0	8.441
773.0	8.266
774.0	8.024
775.0	9.381
776.0	8.941
777.0	9.201
778.0	9.339
779.0	9.413
780.0	11.21

Sample:	'wa-6(EM)
File name:	80.FDS
Run Date:	'17:55:35, 07/11/2024
Operator:	WXH
Comment:	'

Instrument
Model:	F-4600 FL Spectrophotometer
Serial Number:	3080-002
ROM Version:	5J24000 02

Instrument Parameters
Measurement type:	Wavelength scan
Scan mode:	Emission
Data mode:	Fluorescence
EX WL:	460.0 nm
EM  Start WL:	480.0 nm
EM  End WL:	780.0 nm
Scan speed:	1200 nm/min
Delay:	0.0 s
EX Slit:	2.5 nm
EM Slit:	2.5 nm
PMT Voltage:	600 V
Response:	Auto 
Corrected spectra:	Off
Shutter control:	On

Peak integration
Integration method:	Rectangular
Sensitivity:	1
Threshold:	1.000

Peaks
No.	Valley(nm)	Valley(Data)
1	486.0	39.37
2	506.2	523.6
3	509.0	553.9
4	514.0	554.5
5	516.2	523.5
6	521.0	485.2
7	524.8	441.2
8	526.6	431.6
9	531.0	398.6
10	534.6	376.6
11	539.0	332.3
12	546.8	257.4
13	561.0	162.8
14	564.8	138.8
15	569.8	120.8
16	576.6	93.42
17	581.0	83.56
18	585.6	64.70
19	592.4	53.08
20	596.6	49.25
21	599.4	43.42
22	603.6	35.76
23	609.0	30.01
24	612.0	29.34
25	615.0	23.23
26	618.6	21.52
27	623.8	18.95
28	626.2	20.85
29	632.2	15.70
30	635.6	18.67
31	639.4	13.54
32	642.4	13.33
33	644.6	10.49
34	650.0	12.17
35	651.6	11.85
36	657.2	9.867
37	661.4	8.208
38	668.0	6.768
39	671.6	6.601
40	676.4	9.286
41	678.4	8.228
42	682.4	7.552
43	688.8	7.609
44	691.6	7.887
45	695.2	8.310
46	700.0	6.961
47	703.2	9.594
48	706.6	7.339
49	711.6	7.416
50	717.8	6.354
51	721.8	6.978
52	726.2	6.589
53	735.6	6.070
54	738.6	7.210
55	740.4	7.987
56	742.8	7.336
57	745.0	6.040
58	749.2	6.803
59	752.8	6.713
60	755.2	6.296
61	758.8	5.631
62	766.0	6.161
63	769.8	6.706
64	772.6	6.613
65	780.0	9.299

Data Points
nm	Data
480.0	21.26
481.0	21.57
482.0	24.14
483.0	31.04
484.0	37.16
485.0	49.20
486.0	39.37
487.0	56.91
488.0	62.56
489.0	69.23
490.0	92.64
491.0	105.6
492.0	129.9
493.0	157.4
494.0	185.7
495.0	216.4
496.0	239.7
497.0	273.9
498.0	311.2
499.0	339.6
500.0	384.0
501.0	409.9
502.0	465.3
503.0	475.0
504.0	496.0
505.0	547.7
506.0	529.9
507.0	535.8
508.0	568.5
509.0	553.9
510.0	583.8
511.0	598.9
512.0	583.4
513.0	579.5
514.0	554.5
515.0	574.9
516.0	535.6
517.0	557.7
518.0	538.8
519.0	543.3
520.0	529.8
521.0	485.2
522.0	485.5
523.0	491.2
524.0	467.6
525.0	461.9
526.0	462.3
527.0	454.2
528.0	450.0
529.0	455.7
530.0	424.3
531.0	398.6
532.0	423.3
533.0	397.7
534.0	393.4
535.0	378.4
536.0	392.3
537.0	360.1
538.0	357.7
539.0	332.3
540.0	347.7
541.0	343.6
542.0	326.3
543.0	322.5
544.0	294.6
545.0	284.0
546.0	284.2
547.0	273.0
548.0	273.8
549.0	258.3
550.0	244.0
551.0	245.3
552.0	227.2
553.0	225.8
554.0	214.5
555.0	207.5
556.0	197.3
557.0	200.8
558.0	197.8
559.0	185.3
560.0	167.3
561.0	162.8
562.0	164.3
563.0	165.7
564.0	159.8
565.0	149.8
566.0	144.3
567.0	141.3
568.0	130.2
569.0	121.8
570.0	123.1
571.0	125.2
572.0	104.1
573.0	107.0
574.0	100.6
575.0	102.6
576.0	97.32
577.0	93.45
578.0	106.1
579.0	99.77
580.0	92.96
581.0	83.56
582.0	94.63
583.0	93.22
584.0	78.60
585.0	80.16
586.0	77.97
587.0	71.99
588.0	71.17
589.0	63.72
590.0	56.44
591.0	58.23
592.0	53.27
593.0	57.92
594.0	58.03
595.0	55.76
596.0	50.00
597.0	51.65
598.0	52.42
599.0	47.21
600.0	45.29
601.0	46.41
602.0	46.64
603.0	44.91
604.0	42.62
605.0	45.30
606.0	43.69
607.0	47.07
608.0	35.94
609.0	30.01
610.0	41.82
611.0	36.98
612.0	29.34
613.0	36.29
614.0	32.17
615.0	23.23
616.0	31.70
617.0	27.64
618.0	30.52
619.0	22.33
620.0	24.06
621.0	27.46
622.0	25.52
623.0	25.75
624.0	20.78
625.0	19.22
626.0	23.86
627.0	23.49
628.0	23.77
629.0	20.44
630.0	19.16
631.0	15.80
632.0	16.17
633.0	25.31
634.0	20.72
635.0	21.29
636.0	20.78
637.0	20.90
638.0	15.84
639.0	16.69
640.0	16.38
641.0	16.45
642.0	15.09
643.0	17.65
644.0	12.31
645.0	14.24
646.0	12.86
647.0	19.88
648.0	17.48
649.0	13.04
650.0	12.17
651.0	13.44
652.0	13.46
653.0	19.62
654.0	13.53
655.0	14.38
656.0	10.19
657.0	10.75
658.0	12.58
659.0	10.70
660.0	10.36
661.0	8.895
662.0	8.706
663.0	12.30
664.0	11.34
665.0	8.634
666.0	11.08
667.0	10.32
668.0	6.768
669.0	10.87
670.0	13.19
671.0	8.693
672.0	10.82
673.0	12.40
674.0	10.72
675.0	12.92
676.0	12.26
677.0	14.10
678.0	9.598
679.0	9.646
680.0	11.54
681.0	11.56
682.0	8.644
683.0	10.15
684.0	10.36
685.0	11.38
686.0	11.90
687.0	13.42
688.0	11.29
689.0	8.250
690.0	11.13
691.0	11.51
692.0	9.835
693.0	11.00
694.0	10.18
695.0	9.750
696.0	8.882
697.0	11.39
698.0	12.07
699.0	9.008
700.0	6.961
701.0	15.28
702.0	12.76
703.0	12.73
704.0	12.93
705.0	9.082
706.0	10.88
707.0	11.48
708.0	9.077
709.0	9.764
710.0	10.80
711.0	9.198
712.0	9.450
713.0	8.136
714.0	13.54
715.0	9.208
716.0	9.274
717.0	9.912
718.0	8.098
719.0	14.18
720.0	13.21
721.0	12.30
722.0	9.867
723.0	10.12
724.0	10.73
725.0	10.82
726.0	8.881
727.0	7.751
728.0	6.452
729.0	7.330
730.0	9.700
731.0	12.35
732.0	8.802
733.0	9.365
734.0	10.33
735.0	7.031
736.0	9.882
737.0	9.746
738.0	8.828
739.0	9.650
740.0	9.732
741.0	12.11
742.0	12.12
743.0	8.362
744.0	12.63
745.0	6.040
746.0	9.029
747.0	9.226
748.0	8.924
749.0	7.328
750.0	8.551
751.0	11.50
752.0	10.32
753.0	6.937
754.0	9.408
755.0	6.354
756.0	12.49
757.0	8.870
758.0	7.516
759.0	7.088
760.0	8.694
761.0	8.974
762.0	14.45
763.0	7.337
764.0	8.407
765.0	8.766
766.0	6.161
767.0	8.563
768.0	8.533
769.0	12.10
770.0	7.248
771.0	10.17
772.0	7.811
773.0	8.676
774.0	10.24
775.0	14.26
776.0	8.794
777.0	9.900
778.0	8.491
779.0	8.086
780.0	9.299

Sample:	'wa-7(EM)
File name:	80.FDS
Run Date:	'17:56:06, 07/11/2024
Operator:	WXH
Comment:	'

Instrument
Model:	F-4600 FL Spectrophotometer
Serial Number:	3080-002
ROM Version:	5J24000 02

Instrument Parameters
Measurement type:	Wavelength scan
Scan mode:	Emission
Data mode:	Fluorescence
EX WL:	460.0 nm
EM  Start WL:	480.0 nm
EM  End WL:	780.0 nm
Scan speed:	1200 nm/min
Delay:	0.0 s
EX Slit:	2.5 nm
EM Slit:	2.5 nm
PMT Voltage:	600 V
Response:	Auto 
Corrected spectra:	Off
Shutter control:	On

Peak integration
Integration method:	Rectangular
Sensitivity:	1
Threshold:	1.000

Peaks
No.	Valley(nm)	Valley(Data)
1	510.4	560.1
2	513.0	557.2
3	516.4	535.1
4	524.8	461.4
5	529.2	426.6
6	534.0	371.1
7	543.4	292.2
8	546.8	268.1
9	549.0	243.1
10	556.4	191.9
11	558.4	183.2
12	569.4	121.7
13	576.2	92.06
14	583.4	68.77
15	587.8	60.41
16	592.4	53.61
17	595.0	46.42
18	597.8	47.41
19	603.4	33.92
20	605.8	31.30
21	609.0	28.12
22	611.4	28.76
23	623.6	20.17
24	625.6	21.21
25	630.0	16.44
26	632.8	15.63
27	637.2	19.05
28	641.2	11.88
29	643.8	13.54
30	648.4	13.30
31	650.2	9.584
32	656.4	8.640
33	659.8	9.711
34	662.2	9.058
35	668.0	9.064
36	672.4	6.486
37	676.4	7.354
38	679.2	6.628
39	681.6	6.891
40	686.2	6.888
41	689.8	8.353
42	691.4	6.403
43	695.6	6.146
44	697.8	8.212
45	700.0	7.444
46	706.2	5.624
47	709.0	9.977
48	712.4	7.176
49	715.8	5.698
50	718.8	7.236
51	722.0	5.055
52	726.4	6.858
53	732.2	6.398
54	736.0	6.313
55	738.2	5.795
56	743.6	7.555
57	746.6	7.208
58	750.2	6.957
59	754.0	6.652
60	757.0	7.574
61	760.4	5.594
62	763.0	7.033
63	764.8	6.875
64	767.4	5.063
65	770.0	6.603
66	774.6	6.833
67	778.4	6.141

Data Points
nm	Data
480.0	13.51
481.0	20.90
482.0	20.58
483.0	33.52
484.0	35.09
485.0	39.29
486.0	54.56
487.0	61.66
488.0	73.28
489.0	74.66
490.0	95.90
491.0	107.2
492.0	131.8
493.0	145.5
494.0	175.4
495.0	214.5
496.0	229.5
497.0	254.8
498.0	320.1
499.0	332.1
500.0	362.1
501.0	390.2
502.0	424.8
503.0	463.8
504.0	508.3
505.0	526.9
506.0	537.3
507.0	563.8
508.0	573.7
509.0	575.7
510.0	560.5
511.0	596.5
512.0	592.2
513.0	557.2
514.0	588.7
515.0	568.1
516.0	558.4
517.0	556.8
518.0	564.5
519.0	530.8
520.0	538.8
521.0	529.1
522.0	502.6
523.0	485.1
524.0	488.3
525.0	470.8
526.0	441.6
527.0	456.5
528.0	436.7
529.0	438.3
530.0	442.2
531.0	433.5
532.0	404.7
533.0	414.8
534.0	371.1
535.0	394.5
536.0	386.5
537.0	368.1
538.0	342.2
539.0	336.9
540.0	341.2
541.0	331.6
542.0	327.3
543.0	298.1
544.0	297.8
545.0	311.1
546.0	280.8
547.0	279.3
548.0	257.9
549.0	243.1
550.0	259.5
551.0	234.9
552.0	241.6
553.0	215.3
554.0	216.9
555.0	204.6
556.0	198.3
557.0	204.4
558.0	185.5
559.0	203.4
560.0	189.6
561.0	168.3
562.0	160.3
563.0	161.5
564.0	158.1
565.0	144.0
566.0	134.4
567.0	134.2
568.0	131.5
569.0	129.8
570.0	123.7
571.0	125.2
572.0	120.5
573.0	109.7
574.0	104.4
575.0	102.6
576.0	93.92
577.0	93.33
578.0	90.31
579.0	84.03
580.0	85.29
581.0	85.28
582.0	79.88
583.0	72.71
584.0	72.09
585.0	74.86
586.0	69.67
587.0	61.53
588.0	67.13
589.0	68.72
590.0	66.25
591.0	63.49
592.0	57.96
593.0	67.37
594.0	53.42
595.0	46.42
596.0	55.53
597.0	50.64
598.0	49.48
599.0	48.87
600.0	50.02
601.0	45.01
602.0	38.39
603.0	37.56
604.0	41.64
605.0	34.52
606.0	38.30
607.0	35.21
608.0	35.58
609.0	28.12
610.0	36.58
611.0	30.09
612.0	36.72
613.0	36.01
614.0	34.08
615.0	32.75
616.0	29.40
617.0	31.39
618.0	29.47
619.0	27.71
620.0	24.82
621.0	22.93
622.0	23.27
623.0	23.80
624.0	23.97
625.0	23.21
626.0	23.55
627.0	24.34
628.0	22.97
629.0	20.85
630.0	16.44
631.0	17.83
632.0	19.13
633.0	15.87
634.0	16.90
635.0	22.31
636.0	23.12
637.0	19.60
638.0	19.93
639.0	21.84
640.0	16.60
641.0	14.48
642.0	16.32
643.0	14.93
644.0	14.07
645.0	17.93
646.0	17.65
647.0	17.64
648.0	14.68
649.0	16.23
650.0	12.68
651.0	12.87
652.0	10.78
653.0	13.86
654.0	12.13
655.0	9.380
656.0	11.61
657.0	12.95
658.0	11.83
659.0	12.79
660.0	10.54
661.0	10.92
662.0	9.317
663.0	13.10
664.0	12.30
665.0	15.96
666.0	15.39
667.0	11.87
668.0	9.064
669.0	12.39
670.0	11.43
671.0	8.504
672.0	7.608
673.0	11.42
674.0	11.67
675.0	8.232
676.0	8.879
677.0	10.81
678.0	17.06
679.0	8.092
680.0	9.449
681.0	11.85
682.0	7.364
683.0	10.65
684.0	7.548
685.0	9.255
686.0	8.440
687.0	8.224
688.0	10.81
689.0	11.12
690.0	9.220
691.0	9.105
692.0	10.01
693.0	7.621
694.0	10.12
695.0	6.148
696.0	10.45
697.0	13.27
698.0	8.511
699.0	12.27
700.0	7.444
701.0	10.53
702.0	10.85
703.0	10.99
704.0	7.326
705.0	9.736
706.0	6.994
707.0	11.05
708.0	14.33
709.0	9.977
710.0	10.85
711.0	11.69
712.0	10.51
713.0	10.97
714.0	9.340
715.0	8.876
716.0	9.251
717.0	9.091
718.0	10.91
719.0	8.762
720.0	11.09
721.0	12.90
722.0	5.055
723.0	7.055
724.0	9.486
725.0	10.57
726.0	10.10
727.0	11.09
728.0	8.846
729.0	8.201
730.0	7.617
731.0	10.62
732.0	7.610
733.0	10.10
734.0	11.78
735.0	11.35
736.0	6.313
737.0	10.16
738.0	7.931
739.0	8.778
740.0	8.811
741.0	6.901
742.0	8.266
743.0	10.93
744.0	8.425
745.0	11.13
746.0	8.434
747.0	8.677
748.0	9.546
749.0	6.994
750.0	8.799
751.0	10.37
752.0	8.158
753.0	11.68
754.0	6.652
755.0	7.726
756.0	12.22
757.0	7.574
758.0	8.508
759.0	11.21
760.0	8.796
761.0	14.76
762.0	7.227
763.0	7.033
764.0	12.36
765.0	7.254
766.0	11.08
767.0	6.439
768.0	7.002
769.0	8.600
770.0	6.603
771.0	6.793
772.0	8.891
773.0	11.36
774.0	7.921
775.0	9.906
776.0	9.487
777.0	9.431
778.0	7.529
779.0	9.954
780.0	12.59

Sample:	'wa-8(EM)
File name:	80.FDS
Run Date:	'17:56:36, 07/11/2024
Operator:	WXH
Comment:	'

Instrument
Model:	F-4600 FL Spectrophotometer
Serial Number:	3080-002
ROM Version:	5J24000 02

Instrument Parameters
Measurement type:	Wavelength scan
Scan mode:	Emission
Data mode:	Fluorescence
EX WL:	460.0 nm
EM  Start WL:	480.0 nm
EM  End WL:	780.0 nm
Scan speed:	1200 nm/min
Delay:	0.0 s
EX Slit:	2.5 nm
EM Slit:	2.5 nm
PMT Voltage:	600 V
Response:	Auto 
Corrected spectra:	Off
Shutter control:	On

Peak integration
Integration method:	Rectangular
Sensitivity:	1
Threshold:	1.000

Peaks
No.	Valley(nm)	Valley(Data)
1	506.8	525.7
2	511.4	568.7
3	515.0	567.8
4	518.2	518.9
5	529.6	407.8
6	534.4	370.0
7	537.8	338.7
8	543.6	298.0
9	560.0	157.0
10	562.0	157.5
11	564.8	138.8
12	569.6	111.7
13	574.6	90.17
14	577.2	86.60
15	580.8	78.49
16	585.0	73.74
17	587.8	64.09
18	591.0	52.26
19	594.4	49.26
20	596.4	45.28
21	598.8	43.14
22	602.0	39.25
23	608.4	30.29
24	613.8	30.11
25	620.2	21.59
26	622.6	21.45
27	625.8	16.74
28	627.8	17.76
29	630.2	16.75
30	635.4	16.77
31	639.6	14.56
32	642.0	12.96
33	646.6	11.28
34	651.0	11.72
35	654.4	9.611
36	658.4	9.906
37	660.8	13.00
38	662.0	11.69
39	664.8	11.34
40	670.4	7.588
41	674.2	8.632
42	680.4	5.521
43	689.2	6.277
44	692.0	7.164
45	693.8	5.876
46	698.8	8.072
47	702.6	4.414
48	709.6	6.805
49	713.8	6.576
50	716.6	5.353
51	718.4	7.815
52	723.0	6.607
53	727.0	6.068
54	730.8	7.813
55	732.4	8.130
56	737.0	7.233
57	740.4	7.451
58	745.2	8.159
59	747.8	7.712
60	751.2	4.860
61	755.0	7.209
62	756.4	8.588
63	758.4	6.886
64	760.8	6.795
65	762.2	6.002
66	764.4	7.507
67	766.4	6.751
68	770.0	6.078
69	774.4	5.369
70	776.8	6.355

Data Points
nm	Data
480.0	14.18
481.0	25.50
482.0	26.91
483.0	28.35
484.0	36.38
485.0	40.35
486.0	51.28
487.0	54.42
488.0	69.52
489.0	77.85
490.0	98.81
491.0	107.4
492.0	118.5
493.0	157.2
494.0	186.9
495.0	218.2
496.0	233.4
497.0	286.3
498.0	316.1
499.0	338.0
500.0	371.8
501.0	410.6
502.0	428.3
503.0	468.8
504.0	514.7
505.0	518.6
506.0	546.2
507.0	531.3
508.0	581.6
509.0	592.4
510.0	614.2
511.0	569.0
512.0	581.2
513.0	582.3
514.0	572.6
515.0	567.8
516.0	563.1
517.0	572.3
518.0	529.7
519.0	534.8
520.0	539.5
521.0	515.2
522.0	511.9
523.0	457.8
524.0	477.6
525.0	470.8
526.0	465.7
527.0	475.6
528.0	463.2
529.0	432.6
530.0	430.0
531.0	422.3
532.0	410.2
533.0	397.6
534.0	382.0
535.0	370.1
536.0	362.9
537.0	351.7
538.0	344.3
539.0	358.5
540.0	353.4
541.0	345.0
542.0	319.6
543.0	313.6
544.0	313.4
545.0	300.4
546.0	300.8
547.0	285.9
548.0	269.2
549.0	262.0
550.0	258.7
551.0	248.8
552.0	239.6
553.0	236.5
554.0	218.8
555.0	194.8
556.0	198.9
557.0	191.3
558.0	168.6
559.0	176.9
560.0	157.0
561.0	176.0
562.0	157.5
563.0	170.3
564.0	157.8
565.0	143.5
566.0	139.9
567.0	133.4
568.0	129.5
569.0	121.6
570.0	118.0
571.0	116.1
572.0	115.8
573.0	113.5
574.0	98.00
575.0	93.59
576.0	98.43
577.0	95.56
578.0	96.13
579.0	92.60
580.0	83.05
581.0	86.99
582.0	90.67
583.0	81.83
584.0	77.57
585.0	73.74
586.0	80.18
587.0	79.46
588.0	64.62
589.0	67.07
590.0	63.76
591.0	52.26
592.0	52.88
593.0	62.67
594.0	53.11
595.0	49.65
596.0	50.62
597.0	52.86
598.0	42.79
599.0	50.43
600.0	50.33
601.0	45.69
602.0	39.25
603.0	49.11
604.0	38.73
605.0	38.94
606.0	41.12
607.0	36.74
608.0	33.41
609.0	31.33
610.0	38.30
611.0	41.79
612.0	40.87
613.0	31.06
614.0	39.53
615.0	34.83
616.0	34.09
617.0	31.53
618.0	27.90
619.0	24.68
620.0	23.60
621.0	23.70
622.0	24.27
623.0	25.63
624.0	24.88
625.0	21.87
626.0	19.54
627.0	22.35
628.0	20.11
629.0	23.27
630.0	19.77
631.0	18.69
632.0	20.79
633.0	25.92
634.0	19.30
635.0	20.58
636.0	18.46
637.0	20.98
638.0	19.95
639.0	15.50
640.0	18.68
641.0	16.90
642.0	12.96
643.0	14.82
644.0	17.97
645.0	15.41
646.0	13.49
647.0	12.30
648.0	16.07
649.0	16.17
650.0	17.97
651.0	11.72
652.0	16.41
653.0	14.96
654.0	11.14
655.0	15.47
656.0	11.51
657.0	13.91
658.0	13.85
659.0	12.66
660.0	14.45
661.0	13.30
662.0	11.69
663.0	13.47
664.0	12.25
665.0	13.07
666.0	12.06
667.0	13.30
668.0	15.02
669.0	10.39
670.0	10.62
671.0	7.848
672.0	13.88
673.0	12.94
674.0	9.760
675.0	11.50
676.0	11.63
677.0	12.71
678.0	10.56
679.0	9.540
680.0	5.818
681.0	6.656
682.0	11.38
683.0	12.06
684.0	6.825
685.0	7.513
686.0	10.43
687.0	8.610
688.0	8.455
689.0	8.063
690.0	8.515
691.0	10.41
692.0	7.164
693.0	9.075
694.0	7.347
695.0	13.37
696.0	10.24
697.0	9.505
698.0	8.276
699.0	8.303
700.0	10.98
701.0	10.41
702.0	8.302
703.0	6.248
704.0	10.39
705.0	9.470
706.0	14.95
707.0	11.75
708.0	8.948
709.0	9.077
710.0	10.37
711.0	10.70
712.0	11.26
713.0	8.135
714.0	11.89
715.0	10.82
716.0	8.005
717.0	9.960
718.0	8.824
719.0	11.27
720.0	10.38
721.0	9.081
722.0	8.087
723.0	6.607
724.0	9.605
725.0	9.231
726.0	9.926
727.0	6.068
728.0	7.770
729.0	11.59
730.0	8.410
731.0	13.37
732.0	8.427
733.0	10.51
734.0	6.873
735.0	9.020
736.0	9.743
737.0	7.233
738.0	10.35
739.0	9.143
740.0	8.078
741.0	8.092
742.0	9.349
743.0	10.99
744.0	10.18
745.0	8.627
746.0	10.79
747.0	10.62
748.0	8.785
749.0	11.22
750.0	12.25
751.0	5.913
752.0	8.609
753.0	8.088
754.0	7.525
755.0	7.209
756.0	8.831
757.0	9.224
758.0	9.753
759.0	8.266
760.0	8.932
761.0	9.392
762.0	9.356
763.0	9.411
764.0	9.006
765.0	10.94
766.0	9.816
767.0	11.93
768.0	11.45
769.0	11.98
770.0	6.078
771.0	10.34
772.0	10.47
773.0	10.76
774.0	5.736
775.0	11.27
776.0	9.496
777.0	8.520
778.0	8.430
779.0	7.659
780.0	9.944

Sample:	'wa-9(EM)
File name:	80.FDS
Run Date:	'17:57:06, 07/11/2024
Operator:	WXH
Comment:	'

Instrument
Model:	F-4600 FL Spectrophotometer
Serial Number:	3080-002
ROM Version:	5J24000 02

Instrument Parameters
Measurement type:	Wavelength scan
Scan mode:	Emission
Data mode:	Fluorescence
EX WL:	460.0 nm
EM  Start WL:	480.0 nm
EM  End WL:	780.0 nm
Scan speed:	1200 nm/min
Delay:	0.0 s
EX Slit:	2.5 nm
EM Slit:	2.5 nm
PMT Voltage:	600 V
Response:	Auto 
Corrected spectra:	Off
Shutter control:	On

Peak integration
Integration method:	Rectangular
Sensitivity:	1
Threshold:	1.000

Peaks
No.	Valley(nm)	Valley(Data)
1	484.8	31.37
2	510.4	556.1
3	515.0	535.2
4	518.8	514.7
5	527.8	429.5
6	532.6	391.2
7	543.0	307.3
8	555.6	191.5
9	563.4	136.0
10	566.8	129.9
11	580.6	76.58
12	583.6	75.26
13	586.6	67.62
14	591.2	54.76
15	594.6	45.55
16	597.8	46.33
17	600.0	47.00
18	602.0	35.09
19	607.6	31.37
20	610.6	25.21
21	613.8	27.17
22	618.0	22.96
23	620.8	21.99
24	624.6	18.64
25	628.4	17.06
26	632.6	14.73
27	636.2	15.13
28	637.8	13.74
29	640.8	12.58
30	644.4	12.52
31	645.8	11.82
32	647.8	11.31
33	651.4	11.73
34	658.0	12.81
35	659.8	10.77
36	662.4	12.74
37	668.4	9.634
38	672.2	8.773
39	677.0	9.435
40	680.6	8.994
41	682.6	9.615
42	683.8	7.895
43	686.6	8.481
44	692.0	8.020
45	698.6	5.668
46	702.0	9.236
47	703.6	8.165
48	708.0	7.385
49	711.2	7.220
50	716.8	6.402
51	718.8	4.705
52	721.0	6.325
53	722.4	6.492
54	724.8	7.519
55	727.6	6.433
56	731.8	4.220
57	733.8	5.618
58	736.2	6.649
59	740.2	5.385
60	743.2	5.083
61	746.2	6.863
62	748.0	6.220
63	751.0	8.021
64	753.8	7.213
65	756.4	5.717
66	761.0	5.823
67	764.0	5.778
68	771.6	4.798
69	772.8	4.105
70	776.6	4.955

Data Points
nm	Data
480.0	23.63
481.0	22.09
482.0	25.08
483.0	30.01
484.0	33.86
485.0	39.30
486.0	50.97
487.0	60.79
488.0	72.42
489.0	78.49
490.0	85.90
491.0	98.85
492.0	128.7
493.0	164.9
494.0	188.6
495.0	221.1
496.0	232.7
497.0	298.9
498.0	302.7
499.0	351.7
500.0	395.0
501.0	418.8
502.0	427.8
503.0	483.1
504.0	504.2
505.0	515.3
506.0	527.9
507.0	541.1
508.0	541.6
509.0	569.9
510.0	586.4
511.0	585.9
512.0	601.0
513.0	593.8
514.0	603.8
515.0	535.2
516.0	570.2
517.0	548.5
518.0	552.8
519.0	530.1
520.0	526.4
521.0	532.6
522.0	503.5
523.0	500.2
524.0	454.6
525.0	486.0
526.0	458.9
527.0	448.7
528.0	449.8
529.0	451.3
530.0	420.8
531.0	413.3
532.0	410.6
533.0	407.6
534.0	405.1
535.0	382.7
536.0	393.6
537.0	356.0
538.0	360.8
539.0	344.1
540.0	339.6
541.0	322.7
542.0	330.7
543.0	307.3
544.0	312.0
545.0	285.8
546.0	278.2
547.0	262.5
548.0	264.7
549.0	261.0
550.0	253.2
551.0	241.0
552.0	253.7
553.0	220.0
554.0	211.1
555.0	209.7
556.0	191.7
557.0	203.9
558.0	183.0
559.0	179.7
560.0	183.3
561.0	172.8
562.0	160.7
563.0	147.7
564.0	142.0
565.0	145.6
566.0	135.8
567.0	130.7
568.0	141.9
569.0	125.9
570.0	120.3
571.0	113.4
572.0	115.4
573.0	113.3
574.0	111.6
575.0	104.9
576.0	107.9
577.0	100.8
578.0	98.98
579.0	91.66
580.0	84.44
581.0	86.22
582.0	86.13
583.0	82.84
584.0	83.84
585.0	79.22
586.0	73.76
587.0	75.09
588.0	82.05
589.0	71.71
590.0	69.75
591.0	59.65
592.0	61.96
593.0	53.90
594.0	53.00
595.0	46.86
596.0	57.54
597.0	55.31
598.0	47.38
599.0	50.96
600.0	47.00
601.0	49.34
602.0	35.09
603.0	43.65
604.0	43.70
605.0	47.20
606.0	42.01
607.0	36.79
608.0	33.91
609.0	32.58
610.0	28.54
611.0	30.33
612.0	32.64
613.0	34.71
614.0	32.26
615.0	32.85
616.0	32.27
617.0	28.58
618.0	22.96
619.0	25.69
620.0	28.72
621.0	24.82
622.0	26.04
623.0	23.38
624.0	21.45
625.0	20.79
626.0	19.30
627.0	21.16
628.0	17.94
629.0	19.66
630.0	22.47
631.0	21.08
632.0	20.65
633.0	16.45
634.0	18.45
635.0	18.66
636.0	16.33
637.0	23.03
638.0	15.67
639.0	17.73
640.0	18.61
641.0	15.12
642.0	13.57
643.0	20.08
644.0	13.48
645.0	16.43
646.0	12.43
647.0	14.67
648.0	11.64
649.0	13.85
650.0	14.52
651.0	15.70
652.0	13.21
653.0	15.47
654.0	17.34
655.0	16.75
656.0	15.81
657.0	13.71
658.0	12.81
659.0	13.91
660.0	11.57
661.0	11.64
662.0	14.84
663.0	13.32
664.0	15.52
665.0	12.67
666.0	11.24
667.0	10.11
668.0	10.16
669.0	17.20
670.0	11.41
671.0	12.32
672.0	10.49
673.0	10.77
674.0	9.722
675.0	16.79
676.0	17.12
677.0	9.435
678.0	13.03
679.0	11.92
680.0	12.18
681.0	10.27
682.0	10.11
683.0	14.91
684.0	8.475
685.0	11.40
686.0	10.34
687.0	11.97
688.0	12.19
689.0	12.72
690.0	8.140
691.0	8.739
692.0	8.020
693.0	13.08
694.0	11.69
695.0	9.849
696.0	9.262
697.0	11.03
698.0	11.95
699.0	8.946
700.0	10.91
701.0	11.38
702.0	9.236
703.0	9.792
704.0	9.721
705.0	12.67
706.0	10.18
707.0	9.407
708.0	7.385
709.0	8.627
710.0	10.37
711.0	9.974
712.0	10.48
713.0	10.42
714.0	11.76
715.0	14.85
716.0	9.982
717.0	8.328
718.0	9.321
719.0	7.100
720.0	10.79
721.0	6.325
722.0	9.929
723.0	12.07
724.0	11.01
725.0	9.892
726.0	9.803
727.0	7.867
728.0	9.961
729.0	9.804
730.0	9.794
731.0	7.572
732.0	8.303
733.0	8.970
734.0	7.247
735.0	9.902
736.0	8.298
737.0	13.96
738.0	7.253
739.0	4.887
740.0	6.065
741.0	12.23
742.0	11.67
743.0	6.117
744.0	8.947
745.0	9.006
746.0	7.379
747.0	10.08
748.0	6.220
749.0	10.38
750.0	12.54
751.0	8.021
752.0	8.780
753.0	11.03
754.0	8.355
755.0	9.870
756.0	5.944
757.0	7.711
758.0	9.285
759.0	11.24
760.0	9.661
761.0	5.823
762.0	13.04
763.0	9.440
764.0	5.778
765.0	8.545
766.0	9.099
767.0	8.839
768.0	9.609
769.0	8.425
770.0	12.21
771.0	7.405
772.0	12.65
773.0	4.840
774.0	7.940
775.0	11.15
776.0	7.939
777.0	6.700
778.0	8.714
779.0	10.93
780.0	9.516

Sample:	'wa-10(EM)
File name:	80.FDS
Run Date:	'17:57:36, 07/11/2024
Operator:	WXH
Comment:	'

Instrument
Model:	F-4600 FL Spectrophotometer
Serial Number:	3080-002
ROM Version:	5J24000 02

Instrument Parameters
Measurement type:	Wavelength scan
Scan mode:	Emission
Data mode:	Fluorescence
EX WL:	460.0 nm
EM  Start WL:	480.0 nm
EM  End WL:	780.0 nm
Scan speed:	1200 nm/min
Delay:	0.0 s
EX Slit:	2.5 nm
EM Slit:	2.5 nm
PMT Voltage:	600 V
Response:	Auto 
Corrected spectra:	Off
Shutter control:	On

Peak integration
Integration method:	Rectangular
Sensitivity:	1
Threshold:	1.000

Peaks
No.	Valley(nm)	Valley(Data)
1	510.6	568.3
2	514.4	543.9
3	515.8	531.8
4	517.8	509.3
5	525.8	449.3
6	529.6	405.4
7	532.4	387.1
8	535.6	350.0
9	538.8	334.8
10	568.6	125.9
11	574.2	93.56
12	577.0	89.45
13	579.0	87.32
14	590.8	58.93
15	595.4	44.15
16	602.0	35.06
17	603.4	37.67
18	607.0	29.31
19	609.0	32.91
20	611.6	27.53
21	615.8	25.75
22	621.2	24.03
23	624.6	21.67
24	627.0	17.57
25	629.4	17.30
26	634.2	17.25
27	639.4	13.66
28	641.4	11.93
29	647.8	13.47
30	653.6	9.382
31	656.2	8.942
32	659.6	11.70
33	661.4	10.53
34	664.4	8.745
35	666.8	9.766
36	668.6	9.955
37	671.8	8.685
38	674.8	8.174
39	678.0	8.750
40	681.4	10.36
41	684.0	7.451
42	687.6	7.245
43	690.8	6.128
44	692.2	7.008
45	694.4	4.684
46	698.2	5.509
47	702.6	6.763
48	704.8	5.361
49	711.0	8.420
50	713.6	4.807
51	717.8	8.557
52	720.2	6.964
53	726.4	6.564
54	730.8	4.997
55	734.6	7.018
56	736.4	5.772
57	739.2	8.030
58	742.2	7.731
59	743.8	6.380
60	750.0	5.589
61	751.8	7.821
62	753.6	6.294
63	758.0	7.704
64	760.2	5.973
65	763.0	6.309
66	767.0	6.784
67	769.0	8.284
68	773.8	6.535
69	777.0	6.361
70	780.0	7.330

Data Points
nm	Data
480.0	29.61
481.0	23.86
482.0	26.94
483.0	26.61
484.0	34.66
485.0	46.14
486.0	49.83
487.0	58.29
488.0	69.49
489.0	77.36
490.0	94.97
491.0	118.5
492.0	144.2
493.0	147.7
494.0	169.0
495.0	203.6
496.0	239.3
497.0	275.2
498.0	298.3
499.0	323.7
500.0	349.5
501.0	422.6
502.0	432.7
503.0	460.8
504.0	490.9
505.0	481.7
506.0	532.8
507.0	548.0
508.0	570.4
509.0	580.7
510.0	580.2
511.0	589.6
512.0	587.8
513.0	576.0
514.0	558.8
515.0	567.1
516.0	542.8
517.0	540.9
518.0	511.8
519.0	517.9
520.0	533.8
521.0	516.5
522.0	494.8
523.0	480.9
524.0	470.0
525.0	475.2
526.0	463.7
527.0	472.4
528.0	443.9
529.0	419.5
530.0	425.1
531.0	414.3
532.0	388.9
533.0	412.0
534.0	396.0
535.0	374.7
536.0	377.6
537.0	368.7
538.0	354.0
539.0	342.8
540.0	343.4
541.0	323.8
542.0	322.6
543.0	300.5
544.0	294.7
545.0	303.9
546.0	282.3
547.0	264.5
548.0	270.1
549.0	263.4
550.0	247.1
551.0	235.6
552.0	238.3
553.0	217.5
554.0	220.6
555.0	214.7
556.0	199.8
557.0	208.7
558.0	198.3
559.0	173.0
560.0	174.0
561.0	159.9
562.0	170.1
563.0	157.0
564.0	154.6
565.0	155.3
566.0	140.2
567.0	130.5
568.0	126.4
569.0	134.7
570.0	131.2
571.0	115.7
572.0	117.4
573.0	103.5
574.0	93.84
575.0	113.1
576.0	105.1
577.0	89.45
578.0	102.6
579.0	87.32
580.0	91.37
581.0	77.75
582.0	82.09
583.0	80.28
584.0	82.47
585.0	82.47
586.0	76.75
587.0	70.67
588.0	65.79
589.0	63.44
590.0	61.24
591.0	61.44
592.0	61.67
593.0	57.01
594.0	58.66
595.0	48.08
596.0	46.86
597.0	53.80
598.0	46.80
599.0	42.19
600.0	40.54
601.0	46.31
602.0	35.06
603.0	41.96
604.0	38.81
605.0	43.33
606.0	42.26
607.0	29.31
608.0	35.73
609.0	32.91
610.0	35.32
611.0	35.06
612.0	28.23
613.0	32.64
614.0	30.38
615.0	34.04
616.0	29.01
617.0	33.18
618.0	31.29
619.0	27.85
620.0	25.88
621.0	27.39
622.0	26.08
623.0	25.77
624.0	27.66
625.0	25.54
626.0	23.61
627.0	17.57
628.0	25.97
629.0	18.70
630.0	18.23
631.0	19.22
632.0	18.91
633.0	18.96
634.0	21.62
635.0	18.53
636.0	22.10
637.0	18.04
638.0	18.59
639.0	16.99
640.0	16.27
641.0	13.86
642.0	14.82
643.0	18.27
644.0	15.10
645.0	17.63
646.0	19.58
647.0	20.49
648.0	14.83
649.0	16.36
650.0	14.04
651.0	17.30
652.0	15.48
653.0	11.42
654.0	9.889
655.0	12.23
656.0	9.272
657.0	12.03
658.0	15.56
659.0	13.34
660.0	15.57
661.0	13.05
662.0	13.22
663.0	13.64
664.0	11.98
665.0	12.34
666.0	11.54
667.0	11.49
668.0	14.15
669.0	11.79
670.0	10.85
671.0	9.503
672.0	9.441
673.0	11.55
674.0	14.84
675.0	12.07
676.0	12.32
677.0	9.791
678.0	8.750
679.0	10.39
680.0	12.93
681.0	12.07
682.0	14.73
683.0	9.177
684.0	7.451
685.0	10.96
686.0	11.80
687.0	8.948
688.0	11.47
689.0	9.732
690.0	9.508
691.0	10.31
692.0	7.854
693.0	7.732
694.0	8.316
695.0	7.720
696.0	8.851
697.0	10.39
698.0	6.851
699.0	8.088
700.0	8.832
701.0	8.684
702.0	7.930
703.0	7.460
704.0	9.270
705.0	5.403
706.0	8.087
707.0	9.621
708.0	11.70
709.0	8.919
710.0	8.622
711.0	8.420
712.0	12.96
713.0	9.470
714.0	5.651
715.0	7.006
716.0	13.25
717.0	9.503
718.0	9.906
719.0	9.475
720.0	7.482
721.0	9.192
722.0	12.01
723.0	9.177
724.0	10.14
725.0	8.641
726.0	7.182
727.0	8.722
728.0	7.323
729.0	13.08
730.0	11.24
731.0	5.745
732.0	12.02
733.0	9.375
734.0	8.244
735.0	10.29
736.0	9.481
737.0	7.171
738.0	9.122
739.0	8.828
740.0	11.03
741.0	11.86
742.0	8.532
743.0	10.41
744.0	7.723
745.0	10.05
746.0	9.821
747.0	9.347
748.0	12.94
749.0	10.00
750.0	5.589
751.0	11.58
752.0	8.058
753.0	8.313
754.0	8.467
755.0	12.24
756.0	8.365
757.0	10.69
758.0	7.704
759.0	9.042
760.0	7.556
761.0	9.559
762.0	11.39
763.0	6.309
764.0	7.499
765.0	13.79
766.0	8.941
767.0	6.784
768.0	9.087
769.0	8.284
770.0	10.20
771.0	8.842
772.0	11.77
773.0	8.710
774.0	7.095
775.0	11.24
776.0	6.993
777.0	6.361
778.0	11.15
779.0	10.23
780.0	7.330

Sample:	'wa-11(EM)
File name:	80.FDS
Run Date:	'17:58:07, 07/11/2024
Operator:	WXH
Comment:	'

Instrument
Model:	F-4600 FL Spectrophotometer
Serial Number:	3080-002
ROM Version:	5J24000 02

Instrument Parameters
Measurement type:	Wavelength scan
Scan mode:	Emission
Data mode:	Fluorescence
EX WL:	460.0 nm
EM  Start WL:	480.0 nm
EM  End WL:	780.0 nm
Scan speed:	1200 nm/min
Delay:	0.0 s
EX Slit:	2.5 nm
EM Slit:	2.5 nm
PMT Voltage:	600 V
Response:	Auto 
Corrected spectra:	Off
Shutter control:	On

Peak integration
Integration method:	Rectangular
Sensitivity:	1
Threshold:	1.000

Peaks
No.	Valley(nm)	Valley(Data)
1	515.0	538.8
2	517.6	529.2
3	520.8	494.8
4	525.4	446.9
5	528.0	448.0
6	530.4	410.3
7	532.6	388.0
8	550.6	230.9
9	560.0	164.9
10	563.2	145.6
11	567.0	127.8
12	574.4	100.3
13	581.8	77.15
14	583.0	76.00
15	593.8	54.58
16	597.6	43.21
17	599.0	42.94
18	607.0	33.01
19	612.8	25.14
20	615.0	23.51
21	618.2	23.91
22	623.2	19.12
23	628.6	19.68
24	631.2	17.21
25	634.8	14.64
26	638.6	12.00
27	642.0	12.65
28	644.4	14.72
29	646.8	13.03
30	649.2	13.19
31	650.6	10.12
32	654.4	10.21
33	658.0	9.471
34	660.2	9.979
35	661.6	9.536
36	663.8	13.94
37	667.6	8.137
38	671.0	8.849
39	672.8	9.473
40	675.0	7.760
41	680.0	7.941
42	685.4	9.191
43	687.2	7.800
44	690.6	4.979
45	694.4	8.650
46	697.6	6.077
47	700.8	6.695
48	703.4	8.160
49	707.6	6.524
50	709.4	5.818
51	712.6	7.114
52	716.4	7.563
53	717.6	10.82
54	720.4	10.44
55	723.2	7.072
56	725.4	8.195
57	729.8	7.548
58	731.2	8.267
59	732.8	9.715
60	734.4	11.10
61	737.8	5.929
62	739.4	7.365
63	741.2	5.745
64	744.0	7.204
65	747.4	8.623
66	753.2	4.809
67	758.0	8.440
68	761.2	5.233
69	765.2	5.956
70	768.0	4.603
71	774.0	6.982
72	777.8	6.254

Data Points
nm	Data
480.0	30.85
481.0	26.42
482.0	27.63
483.0	32.02
484.0	26.18
485.0	40.30
486.0	44.44
487.0	56.65
488.0	75.81
489.0	77.76
490.0	92.66
491.0	108.4
492.0	133.2
493.0	148.3
494.0	184.8
495.0	203.5
496.0	230.8
497.0	274.7
498.0	305.1
499.0	354.3
500.0	377.5
501.0	411.8
502.0	427.2
503.0	472.4
504.0	484.8
505.0	510.2
506.0	525.0
507.0	549.0
508.0	562.0
509.0	590.9
510.0	580.0
511.0	581.7
512.0	579.2
513.0	579.3
514.0	575.4
515.0	538.8
516.0	571.9
517.0	560.1
518.0	530.9
519.0	529.4
520.0	519.8
521.0	519.8
522.0	508.8
523.0	491.1
524.0	472.5
525.0	475.3
526.0	462.6
527.0	448.5
528.0	448.0
529.0	449.6
530.0	426.1
531.0	423.8
532.0	393.5
533.0	416.4
534.0	408.8
535.0	406.5
536.0	386.8
537.0	367.3
538.0	357.9
539.0	349.1
540.0	311.6
541.0	323.5
542.0	325.9
543.0	313.0
544.0	309.9
545.0	296.8
546.0	267.7
547.0	285.8
548.0	268.9
549.0	254.1
550.0	239.0
551.0	246.4
552.0	235.0
553.0	222.7
554.0	220.5
555.0	203.4
556.0	200.2
557.0	192.6
558.0	181.7
559.0	182.7
560.0	164.9
561.0	172.2
562.0	150.8
563.0	149.6
564.0	149.4
565.0	155.9
566.0	143.0
567.0	127.8
568.0	130.9
569.0	136.3
570.0	127.3
571.0	119.4
572.0	109.8
573.0	113.0
574.0	101.3
575.0	105.7
576.0	102.9
577.0	96.66
578.0	96.27
579.0	87.13
580.0	86.32
581.0	81.96
582.0	85.34
583.0	76.00
584.0	83.37
585.0	82.49
586.0	85.79
587.0	70.04
588.0	74.40
589.0	74.02
590.0	66.78
591.0	59.87
592.0	63.08
593.0	61.15
594.0	63.68
595.0	57.30
596.0	52.89
597.0	52.10
598.0	54.13
599.0	42.94
600.0	43.73
601.0	50.00
602.0	41.08
603.0	41.78
604.0	40.01
605.0	39.89
606.0	40.09
607.0	33.01
608.0	32.70
609.0	34.40
610.0	35.68
611.0	30.25
612.0	29.49
613.0	29.25
614.0	29.07
615.0	23.51
616.0	32.16
617.0	29.79
618.0	26.30
619.0	25.63
620.0	29.05
621.0	25.27
622.0	28.89
623.0	20.80
624.0	22.49
625.0	24.88
626.0	27.12
627.0	23.73
628.0	22.21
629.0	22.20
630.0	20.98
631.0	17.99
632.0	19.67
633.0	19.37
634.0	16.33
635.0	15.71
636.0	17.64
637.0	15.99
638.0	17.85
639.0	16.14
640.0	19.31
641.0	15.32
642.0	12.65
643.0	15.68
644.0	17.06
645.0	14.98
646.0	17.99
647.0	14.68
648.0	17.58
649.0	14.52
650.0	14.28
651.0	10.39
652.0	14.90
653.0	11.76
654.0	13.00
655.0	13.90
656.0	17.06
657.0	13.11
658.0	9.471
659.0	11.82
660.0	10.24
661.0	12.09
662.0	12.15
663.0	19.92
664.0	14.89
665.0	17.26
666.0	13.08
667.0	10.64
668.0	9.311
669.0	11.61
670.0	15.17
671.0	8.849
672.0	11.52
673.0	11.76
674.0	12.85
675.0	7.760
676.0	9.487
677.0	10.90
678.0	10.67
679.0	11.58
680.0	7.941
681.0	11.42
682.0	9.453
683.0	11.43
684.0	10.30
685.0	9.665
686.0	12.02
687.0	9.015
688.0	11.71
689.0	9.027
690.0	6.399
691.0	6.334
692.0	10.64
693.0	8.945
694.0	10.45
695.0	13.39
696.0	11.19
697.0	8.505
698.0	7.028
699.0	9.149
700.0	11.53
701.0	10.34
702.0	10.32
703.0	9.645
704.0	10.82
705.0	8.671
706.0	10.12
707.0	9.605
708.0	8.331
709.0	7.728
710.0	11.41
711.0	9.703
712.0	8.596
713.0	11.23
714.0	13.85
715.0	9.605
716.0	10.60
717.0	12.77
718.0	12.52
719.0	14.22
720.0	12.10
721.0	11.66
722.0	13.26
723.0	7.127
724.0	10.09
725.0	11.33
726.0	9.361
727.0	12.12
728.0	10.68
729.0	10.28
730.0	10.25
731.0	9.314
732.0	12.45
733.0	10.23
734.0	12.78
735.0	11.53
736.0	9.874
737.0	10.38
738.0	6.703
739.0	8.939
740.0	9.744
741.0	7.987
742.0	7.469
743.0	9.267
744.0	7.204
745.0	8.984
746.0	7.542
747.0	9.088
748.0	10.45
749.0	11.90
750.0	13.52
751.0	10.89
752.0	9.763
753.0	7.171
754.0	10.44
755.0	12.93
756.0	12.89
757.0	10.92
758.0	8.440
759.0	9.476
760.0	10.68
761.0	6.645
762.0	7.262
763.0	11.69
764.0	8.125
765.0	7.336
766.0	8.592
767.0	8.702
768.0	4.603
769.0	6.784
770.0	7.725
771.0	10.32
772.0	8.215
773.0	8.902
774.0	6.982
775.0	8.700
776.0	10.20
777.0	7.020
778.0	6.826
779.0	7.059
780.0	9.182

Sample:	'wa-12(EM)
File name:	80.FDS
Run Date:	'17:58:37, 07/11/2024
Operator:	WXH
Comment:	'

Instrument
Model:	F-4600 FL Spectrophotometer
Serial Number:	3080-002
ROM Version:	5J24000 02

Instrument Parameters
Measurement type:	Wavelength scan
Scan mode:	Emission
Data mode:	Fluorescence
EX WL:	460.0 nm
EM  Start WL:	480.0 nm
EM  End WL:	780.0 nm
Scan speed:	1200 nm/min
Delay:	0.0 s
EX Slit:	2.5 nm
EM Slit:	2.5 nm
PMT Voltage:	600 V
Response:	Auto 
Corrected spectra:	Off
Shutter control:	On

Peak integration
Integration method:	Rectangular
Sensitivity:	1
Threshold:	1.000

Peaks
No.	Valley(nm)	Valley(Data)
1	483.8	25.16
2	512.2	558.9
3	516.4	529.8
4	518.8	489.5
5	523.8	468.4
6	532.8	388.4
7	536.6	353.7
8	540.2	327.9
9	545.8	267.0
10	559.4	155.9
11	564.4	134.9
12	569.8	113.3
13	574.0	103.4
14	578.6	91.25
15	579.8	88.61
16	583.2	72.22
17	585.4	70.45
18	597.0	44.73
19	603.0	34.64
20	606.4	35.30
21	610.4	27.42
22	613.4	19.64
23	617.4	27.37
24	618.6	27.50
25	620.8	19.59
26	624.0	21.31
27	626.2	21.24
28	631.6	17.26
29	633.8	13.56
30	638.0	14.71
31	642.4	13.90
32	645.0	12.53
33	648.2	13.28
34	650.6	9.979
35	653.2	11.63
36	655.2	13.32
37	657.6	11.86
38	661.0	8.186
39	663.8	10.57
40	667.4	9.223
41	671.6	8.696
42	673.8	9.370
43	677.4	7.017
44	681.4	7.387
45	683.8	5.956
46	688.6	7.952
47	690.0	7.489
48	692.8	8.006
49	696.0	8.088
50	700.8	7.685
51	705.2	8.682
52	708.2	8.408
53	710.2	9.272
54	712.6	7.296
55	715.0	7.302
56	718.8	8.810
57	723.2	5.486
58	728.2	6.505
59	730.8	8.338
60	735.4	8.295
61	740.0	5.856
62	745.4	4.220
63	750.8	5.529
64	754.6	7.167
65	756.2	8.069
66	761.6	6.736
67	764.6	7.366
68	766.4	8.144
69	771.6	8.709
70	776.2	6.929
71	780.0	8.824

Data Points
nm	Data
480.0	26.05
481.0	23.54
482.0	25.74
483.0	33.50
484.0	27.78
485.0	46.03
486.0	59.81
487.0	68.05
488.0	68.92
489.0	80.15
490.0	88.92
491.0	105.2
492.0	136.5
493.0	148.1
494.0	165.6
495.0	212.2
496.0	227.9
497.0	259.5
498.0	298.7
499.0	328.3
500.0	387.4
501.0	424.0
502.0	439.9
503.0	475.0
504.0	483.8
505.0	489.7
506.0	517.1
507.0	536.0
508.0	568.7
509.0	587.8
510.0	587.9
511.0	593.4
512.0	568.8
513.0	585.6
514.0	555.8
515.0	541.2
516.0	536.8
517.0	562.0
518.0	539.4
519.0	497.2
520.0	505.3
521.0	501.9
522.0	499.7
523.0	468.5
524.0	475.8
525.0	483.8
526.0	478.8
527.0	474.1
528.0	435.8
529.0	417.7
530.0	418.1
531.0	419.3
532.0	398.9
533.0	402.7
534.0	409.9
535.0	392.5
536.0	365.8
537.0	383.8
538.0	363.0
539.0	331.8
540.0	335.9
541.0	331.6
542.0	332.0
543.0	304.5
544.0	290.0
545.0	283.4
546.0	272.2
547.0	292.9
548.0	276.3
549.0	263.8
550.0	249.4
551.0	230.3
552.0	234.5
553.0	225.1
554.0	207.5
555.0	196.0
556.0	195.0
557.0	187.4
558.0	177.7
559.0	162.6
560.0	171.3
561.0	167.3
562.0	168.4
563.0	159.4
564.0	152.8
565.0	141.4
566.0	154.5
567.0	142.4
568.0	127.9
569.0	118.0
570.0	116.7
571.0	120.8
572.0	123.4
573.0	111.1
574.0	103.4
575.0	108.5
576.0	93.82
577.0	98.69
578.0	91.87
579.0	96.09
580.0	89.13
581.0	99.11
582.0	76.13
583.0	72.25
584.0	77.72
585.0	80.98
586.0	78.92
587.0	73.60
588.0	70.83
589.0	68.84
590.0	61.14
591.0	60.48
592.0	63.16
593.0	58.17
594.0	55.50
595.0	50.47
596.0	48.99
597.0	44.73
598.0	45.54
599.0	49.28
600.0	46.24
601.0	41.21
602.0	41.37
603.0	34.64
604.0	44.26
605.0	45.17
606.0	42.19
607.0	38.81
608.0	40.91
609.0	31.54
610.0	34.63
611.0	31.67
612.0	35.48
613.0	23.80
614.0	29.85
615.0	32.00
616.0	27.32
617.0	30.31
618.0	30.54
619.0	27.96
620.0	29.45
621.0	28.22
622.0	24.84
623.0	25.02
624.0	21.31
625.0	24.12
626.0	22.62
627.0	25.61
628.0	32.11
629.0	26.68
630.0	22.81
631.0	19.27
632.0	20.21
633.0	19.68
634.0	17.31
635.0	21.13
636.0	18.54
637.0	17.15
638.0	14.71
639.0	19.68
640.0	23.02
641.0	16.29
642.0	14.92
643.0	17.21
644.0	18.60
645.0	12.53
646.0	18.83
647.0	15.93
648.0	14.63
649.0	13.51
650.0	15.92
651.0	12.59
652.0	15.28
653.0	14.25
654.0	14.69
655.0	13.61
656.0	13.88
657.0	15.44
658.0	12.43
659.0	12.97
660.0	10.65
661.0	8.186
662.0	15.95
663.0	15.61
664.0	11.87
665.0	11.79
666.0	12.78
667.0	10.80
668.0	13.43
669.0	10.43
670.0	12.10
671.0	9.070
672.0	10.88
673.0	11.34
674.0	9.829
675.0	12.74
676.0	12.85
677.0	7.246
678.0	10.54
679.0	9.590
680.0	10.25
681.0	8.198
682.0	9.649
683.0	10.41
684.0	7.736
685.0	11.12
686.0	13.27
687.0	12.13
688.0	9.484
689.0	12.74
690.0	7.489
691.0	9.041
692.0	10.24
693.0	9.930
694.0	8.191
695.0	10.48
696.0	8.088
697.0	9.969
698.0	10.30
699.0	9.881
700.0	11.05
701.0	11.06
702.0	11.27
703.0	9.440
704.0	10.64
705.0	11.73
706.0	11.59
707.0	13.09
708.0	8.899
709.0	11.55
710.0	10.39
711.0	11.80
712.0	11.31
713.0	10.50
714.0	10.76
715.0	7.302
716.0	12.96
717.0	9.788
718.0	10.16
719.0	9.686
720.0	10.86
721.0	10.94
722.0	8.798
723.0	5.724
724.0	10.07
725.0	8.865
726.0	8.852
727.0	9.499
728.0	7.576
729.0	9.014
730.0	10.49
731.0	8.813
732.0	13.48
733.0	12.18
734.0	9.705
735.0	11.80
736.0	11.97
737.0	9.834
738.0	8.398
739.0	6.184
740.0	5.856
741.0	8.444
742.0	10.01
743.0	12.89
744.0	8.900
745.0	5.988
746.0	6.983
747.0	11.04
748.0	8.769
749.0	8.894
750.0	8.750
751.0	6.635
752.0	5.810
753.0	6.794
754.0	11.05
755.0	9.211
756.0	10.14
757.0	11.91
758.0	10.66
759.0	10.80
760.0	10.76
761.0	7.860
762.0	10.51
763.0	9.039
764.0	9.498
765.0	10.36
766.0	9.284
767.0	8.422
768.0	13.42
769.0	11.80
770.0	11.51
771.0	9.957
772.0	9.647
773.0	13.00
774.0	9.693
775.0	11.90
776.0	10.23
777.0	10.15
778.0	8.733
779.0	6.150
780.0	8.824

Sample:	'wa-13(EM)
File name:	80.FDS
Run Date:	'17:59:07, 07/11/2024
Operator:	WXH
Comment:	'

Instrument
Model:	F-4600 FL Spectrophotometer
Serial Number:	3080-002
ROM Version:	5J24000 02

Instrument Parameters
Measurement type:	Wavelength scan
Scan mode:	Emission
Data mode:	Fluorescence
EX WL:	460.0 nm
EM  Start WL:	480.0 nm
EM  End WL:	780.0 nm
Scan speed:	1200 nm/min
Delay:	0.0 s
EX Slit:	2.5 nm
EM Slit:	2.5 nm
PMT Voltage:	600 V
Response:	Auto 
Corrected spectra:	Off
Shutter control:	On

Peak integration
Integration method:	Rectangular
Sensitivity:	1
Threshold:	1.000

Peaks
No.	Valley(nm)	Valley(Data)
1	515.8	539.1
2	519.0	509.8
3	536.8	353.5
4	538.8	356.0
5	553.0	208.0
6	558.4	177.8
7	566.2	137.6
8	569.4	116.3
9	575.6	92.69
10	580.6	72.33
11	584.8	72.50
12	589.8	59.24
13	592.6	57.58
14	598.4	45.76
15	601.0	39.10
16	604.2	34.82
17	608.4	33.12
18	611.4	29.11
19	613.4	29.57
20	614.6	28.31
21	617.0	23.80
22	621.2	21.55
23	625.8	13.43
24	629.6	18.00
25	631.8	17.59
26	634.2	13.32
27	635.6	16.73
28	639.8	15.49
29	643.6	10.94
30	648.2	14.42
31	651.0	13.23
32	653.8	11.23
33	657.6	9.853
34	660.2	8.415
35	663.4	8.507
36	665.8	9.532
37	668.4	7.737
38	674.4	5.632
39	679.0	8.417
40	681.8	6.469
41	687.0	7.752
42	690.8	7.826
43	694.4	8.939
44	698.0	8.573
45	702.8	7.005
46	705.0	4.973
47	708.0	5.994
48	711.6	9.162
49	713.6	7.296
50	715.6	7.712
51	718.6	8.610
52	721.8	6.948
53	725.0	6.005
54	729.4	8.199
55	733.8	6.093
56	736.6	7.021
57	739.8	5.782
58	741.4	6.122
59	748.2	6.916
60	751.8	6.685
61	753.6	5.738
62	758.8	8.752
63	762.2	6.315
64	766.2	7.619
65	769.6	8.582
66	773.0	6.373
67	780.0	8.639

Data Points
nm	Data
480.0	26.13
481.0	27.58
482.0	27.94
483.0	25.88
484.0	36.22
485.0	39.01
486.0	44.20
487.0	64.20
488.0	70.83
489.0	77.30
490.0	91.34
491.0	102.3
492.0	130.0
493.0	154.2
494.0	184.7
495.0	211.5
496.0	250.7
497.0	277.5
498.0	313.5
499.0	336.3
500.0	372.4
501.0	410.5
502.0	439.8
503.0	445.0
504.0	504.7
505.0	529.4
506.0	550.7
507.0	556.6
508.0	562.0
509.0	580.0
510.0	574.1
511.0	619.0
512.0	588.5
513.0	577.8
514.0	569.0
515.0	552.1
516.0	541.8
517.0	533.9
518.0	516.1
519.0	509.8
520.0	528.9
521.0	533.8
522.0	497.3
523.0	510.1
524.0	471.6
525.0	485.9
526.0	441.0
527.0	461.1
528.0	457.6
529.0	456.4
530.0	447.2
531.0	434.4
532.0	420.9
533.0	417.9
534.0	409.2
535.0	417.9
536.0	368.7
537.0	364.7
538.0	361.2
539.0	364.7
540.0	376.8
541.0	345.3
542.0	334.6
543.0	312.2
544.0	308.7
545.0	283.4
546.0	275.2
547.0	259.3
548.0	258.6
549.0	246.0
550.0	260.1
551.0	234.6
552.0	226.4
553.0	208.0
554.0	232.1
555.0	206.7
556.0	210.4
557.0	190.5
558.0	179.9
559.0	178.6
560.0	178.3
561.0	186.3
562.0	158.2
563.0	156.5
564.0	155.9
565.0	150.8
566.0	141.8
567.0	147.6
568.0	134.4
569.0	128.8
570.0	123.8
571.0	123.6
572.0	120.5
573.0	114.1
574.0	110.4
575.0	94.31
576.0	103.3
577.0	95.11
578.0	94.56
579.0	95.32
580.0	88.51
581.0	75.86
582.0	79.91
583.0	91.13
584.0	77.32
585.0	81.41
586.0	71.98
587.0	70.39
588.0	69.49
589.0	68.40
590.0	73.53
591.0	66.88
592.0	64.92
593.0	61.56
594.0	60.43
595.0	56.56
596.0	53.06
597.0	47.92
598.0	46.27
599.0	50.55
600.0	46.71
601.0	39.10
602.0	48.43
603.0	41.72
604.0	35.87
605.0	36.05
606.0	38.78
607.0	38.22
608.0	36.02
609.0	39.85
610.0	34.96
611.0	32.55
612.0	34.08
613.0	30.32
614.0	32.84
615.0	30.83
616.0	33.66
617.0	23.80
618.0	28.07
619.0	28.32
620.0	26.41
621.0	23.08
622.0	24.81
623.0	31.44
624.0	23.65
625.0	18.88
626.0	15.83
627.0	23.08
628.0	22.68
629.0	20.45
630.0	20.30
631.0	21.88
632.0	17.80
633.0	20.56
634.0	14.75
635.0	21.45
636.0	20.39
637.0	18.88
638.0	20.95
639.0	17.70
640.0	17.54
641.0	15.74
642.0	11.32
643.0	13.04
644.0	13.45
645.0	11.96
646.0	17.33
647.0	20.38
648.0	15.40
649.0	21.62
650.0	17.19
651.0	13.23
652.0	17.55
653.0	17.49
654.0	12.39
655.0	18.34
656.0	13.78
657.0	15.52
658.0	14.87
659.0	13.34
660.0	10.80
661.0	12.17
662.0	12.29
663.0	11.90
664.0	9.782
665.0	12.93
666.0	12.02
667.0	11.38
668.0	8.940
669.0	11.19
670.0	10.42
671.0	11.06
672.0	12.66
673.0	12.32
674.0	8.325
675.0	10.14
676.0	9.312
677.0	10.84
678.0	10.13
679.0	8.417
680.0	11.70
681.0	10.68
682.0	8.290
683.0	10.30
684.0	10.49
685.0	8.723
686.0	9.542
687.0	7.752
688.0	10.54
689.0	12.78
690.0	10.50
691.0	9.794
692.0	10.83
693.0	12.93
694.0	9.558
695.0	13.26
696.0	14.20
697.0	10.67
698.0	8.573
699.0	10.82
700.0	11.25
701.0	11.21
702.0	10.29
703.0	9.942
704.0	8.806
705.0	4.973
706.0	6.776
707.0	8.699
708.0	5.994
709.0	11.72
710.0	12.06
711.0	11.85
712.0	10.29
713.0	9.662
714.0	11.54
715.0	8.890
716.0	10.67
717.0	11.33
718.0	10.70
719.0	9.584
720.0	10.26
721.0	8.842
722.0	10.54
723.0	9.034
724.0	10.80
725.0	6.005
726.0	9.402
727.0	11.59
728.0	9.334
729.0	8.945
730.0	10.71
731.0	9.344
732.0	8.798
733.0	11.74
734.0	6.472
735.0	10.54
736.0	9.084
737.0	9.088
738.0	10.24
739.0	8.535
740.0	6.661
741.0	8.433
742.0	8.218
743.0	8.574
744.0	9.570
745.0	10.33
746.0	10.11
747.0	8.137
748.0	8.004
749.0	11.20
750.0	9.792
751.0	6.843
752.0	10.62
753.0	8.719
754.0	6.420
755.0	9.657
756.0	12.61
757.0	10.32
758.0	10.31
759.0	9.214
760.0	13.30
761.0	10.23
762.0	9.110
763.0	9.952
764.0	8.371
765.0	10.19
766.0	8.447
767.0	8.446
768.0	10.71
769.0	9.948
770.0	11.11
771.0	9.413
772.0	9.481
773.0	6.373
774.0	13.06
775.0	12.96
776.0	12.45
777.0	10.02
778.0	9.621
779.0	9.618
780.0	8.639

Sample:	'wa-14(EM)
File name:	80.FDS
Run Date:	'17:59:37, 07/11/2024
Operator:	WXH
Comment:	'

Instrument
Model:	F-4600 FL Spectrophotometer
Serial Number:	3080-002
ROM Version:	5J24000 02

Instrument Parameters
Measurement type:	Wavelength scan
Scan mode:	Emission
Data mode:	Fluorescence
EX WL:	460.0 nm
EM  Start WL:	480.0 nm
EM  End WL:	780.0 nm
Scan speed:	1200 nm/min
Delay:	0.0 s
EX Slit:	2.5 nm
EM Slit:	2.5 nm
PMT Voltage:	600 V
Response:	Auto 
Corrected spectra:	Off
Shutter control:	On

Peak integration
Integration method:	Rectangular
Sensitivity:	1
Threshold:	1.000

Peaks
No.	Valley(nm)	Valley(Data)
1	484.8	37.27
2	514.0	547.1
3	516.0	537.9
4	518.2	520.0
5	523.8	442.4
6	526.6	441.0
7	531.4	399.5
8	547.4	259.5
9	554.2	201.3
10	555.8	200.8
11	570.4	115.7
12	572.8	94.91
13	577.0	94.72
14	578.8	85.81
15	582.4	75.49
16	589.2	63.44
17	592.2	62.79
18	594.2	54.13
19	598.0	45.04
20	601.0	44.75
21	604.8	39.18
22	607.8	33.19
23	610.4	28.37
24	613.0	26.42
25	614.2	23.95
26	617.0	22.21
27	620.6	20.81
28	625.4	18.21
29	631.8	17.68
30	640.2	8.666
31	644.0	10.54
32	649.4	12.52
33	653.6	9.329
34	658.6	10.54
35	661.2	9.523
36	668.2	11.46
37	673.6	5.468
38	676.2	7.739
39	678.0	8.110
40	680.4	8.158
41	683.2	7.305
42	685.6	8.324
43	689.0	7.672
44	691.2	7.831
45	695.0	6.649
46	699.0	5.264
47	704.0	8.065
48	708.6	7.536
49	712.2	5.836
50	718.4	6.575
51	723.4	6.078
52	727.2	7.537
53	729.0	8.276
54	731.8	7.892
55	737.6	8.363
56	741.4	8.008
57	743.2	5.700
58	748.6	7.333
59	751.4	6.297
60	753.4	7.481
61	756.8	7.790
62	760.8	6.373
63	763.8	7.598
64	769.4	6.158
65	771.6	7.538
66	780.0	10.38

Data Points
nm	Data
480.0	20.04
481.0	25.55
482.0	32.07
483.0	30.46
484.0	43.48
485.0	40.45
486.0	55.27
487.0	58.18
488.0	77.29
489.0	83.32
490.0	91.23
491.0	120.7
492.0	125.3
493.0	160.3
494.0	183.5
495.0	213.4
496.0	247.7
497.0	288.5
498.0	311.1
499.0	354.1
500.0	370.2
501.0	413.8
502.0	454.1
503.0	458.6
504.0	495.3
505.0	530.1
506.0	547.4
507.0	544.1
508.0	561.6
509.0	583.1
510.0	594.0
511.0	578.9
512.0	574.6
513.0	563.9
514.0	547.1
515.0	555.0
516.0	537.9
517.0	541.1
518.0	524.9
519.0	525.7
520.0	533.1
521.0	514.9
522.0	499.8
523.0	461.1
524.0	445.9
525.0	484.9
526.0	450.1
527.0	442.0
528.0	444.1
529.0	439.0
530.0	417.2
531.0	407.2
532.0	404.7
533.0	413.7
534.0	391.5
535.0	386.2
536.0	381.8
537.0	377.8
538.0	351.0
539.0	345.1
540.0	338.6
541.0	339.3
542.0	320.0
543.0	314.7
544.0	302.9
545.0	295.3
546.0	268.5
547.0	265.6
548.0	281.3
549.0	257.8
550.0	238.5
551.0	239.2
552.0	225.7
553.0	210.0
554.0	212.0
555.0	213.8
556.0	201.1
557.0	211.3
558.0	193.5
559.0	170.5
560.0	165.7
561.0	164.4
562.0	152.2
563.0	153.8
564.0	153.3
565.0	154.9
566.0	139.0
567.0	146.3
568.0	138.7
569.0	117.8
570.0	123.3
571.0	121.3
572.0	123.6
573.0	95.53
574.0	106.5
575.0	103.7
576.0	96.34
577.0	94.72
578.0	108.7
579.0	88.28
580.0	94.26
581.0	82.01
582.0	85.50
583.0	84.62
584.0	81.30
585.0	80.94
586.0	80.75
587.0	82.20
588.0	71.70
589.0	63.76
590.0	67.19
591.0	58.34
592.0	65.18
593.0	67.22
594.0	60.83
595.0	61.40
596.0	59.98
597.0	53.39
598.0	45.04
599.0	54.25
600.0	52.20
601.0	44.75
602.0	48.79
603.0	45.78
604.0	37.71
605.0	41.82
606.0	45.06
607.0	42.37
608.0	34.98
609.0	38.38
610.0	32.77
611.0	34.09
612.0	33.06
613.0	26.42
614.0	25.00
615.0	30.78
616.0	31.38
617.0	22.21
618.0	30.54
619.0	32.27
620.0	30.92
621.0	23.45
622.0	27.03
623.0	29.60
624.0	27.72
625.0	21.81
626.0	21.46
627.0	21.25
628.0	24.54
629.0	21.96
630.0	19.25
631.0	20.95
632.0	21.09
633.0	18.53
634.0	23.46
635.0	20.06
636.0	19.14
637.0	17.30
638.0	15.67
639.0	17.48
640.0	11.28
641.0	12.71
642.0	14.19
643.0	15.21
644.0	10.54
645.0	13.22
646.0	16.44
647.0	19.36
648.0	15.25
649.0	13.73
650.0	19.42
651.0	17.65
652.0	12.77
653.0	10.07
654.0	13.05
655.0	12.73
656.0	17.46
657.0	14.62
658.0	11.72
659.0	13.70
660.0	15.49
661.0	9.752
662.0	11.45
663.0	10.38
664.0	13.44
665.0	11.31
666.0	13.75
667.0	13.56
668.0	12.00
669.0	13.26
670.0	16.19
671.0	11.39
672.0	13.54
673.0	6.667
674.0	8.771
675.0	11.04
676.0	7.955
677.0	12.06
678.0	8.110
679.0	13.13
680.0	11.53
681.0	10.51
682.0	11.63
683.0	9.288
684.0	14.95
685.0	12.61
686.0	11.18
687.0	10.88
688.0	8.984
689.0	7.672
690.0	10.88
691.0	8.029
692.0	12.91
693.0	8.064
694.0	11.47
695.0	6.649
696.0	10.63
697.0	8.248
698.0	7.444
699.0	5.264
700.0	7.172
701.0	8.655
702.0	9.451
703.0	11.07
704.0	8.065
705.0	10.94
706.0	14.89
707.0	12.66
708.0	9.535
709.0	9.177
710.0	10.48
711.0	10.94
712.0	6.433
713.0	10.21
714.0	10.41
715.0	13.44
716.0	8.658
717.0	9.772
718.0	7.000
719.0	10.99
720.0	10.37
721.0	13.46
722.0	9.207
723.0	9.060
724.0	9.117
725.0	11.79
726.0	9.966
727.0	7.671
728.0	8.267
729.0	8.276
730.0	10.72
731.0	14.07
732.0	9.584
733.0	8.786
734.0	11.74
735.0	15.20
736.0	8.468
737.0	10.93
738.0	10.11
739.0	13.40
740.0	16.68
741.0	10.03
742.0	8.391
743.0	7.428
744.0	11.31
745.0	12.64
746.0	10.96
747.0	12.16
748.0	8.919
749.0	7.442
750.0	7.610
751.0	7.414
752.0	8.877
753.0	7.741
754.0	9.074
755.0	10.01
756.0	11.17
757.0	9.404
758.0	8.551
759.0	10.31
760.0	10.88
761.0	7.622
762.0	10.02
763.0	10.92
764.0	7.998
765.0	9.060
766.0	13.47
767.0	9.397
768.0	10.75
769.0	9.467
770.0	12.29
771.0	8.473
772.0	9.319
773.0	10.01
774.0	9.202
775.0	10.76
776.0	18.11
777.0	11.26
778.0	12.21
779.0	8.324
780.0	10.38

Sample:	'wa-15(EM)
File name:	80.FDS
Run Date:	'18:00:08, 07/11/2024
Operator:	WXH
Comment:	'

Instrument
Model:	F-4600 FL Spectrophotometer
Serial Number:	3080-002
ROM Version:	5J24000 02

Instrument Parameters
Measurement type:	Wavelength scan
Scan mode:	Emission
Data mode:	Fluorescence
EX WL:	460.0 nm
EM  Start WL:	480.0 nm
EM  End WL:	780.0 nm
Scan speed:	1200 nm/min
Delay:	0.0 s
EX Slit:	2.5 nm
EM Slit:	2.5 nm
PMT Voltage:	600 V
Response:	Auto 
Corrected spectra:	Off
Shutter control:	On

Peak integration
Integration method:	Rectangular
Sensitivity:	1
Threshold:	1.000

Peaks
No.	Valley(nm)	Valley(Data)
1	483.2	22.15
2	485.8	40.06
3	506.8	521.7
4	512.2	566.6
5	519.0	525.4
6	522.0	480.8
7	524.6	474.6
8	529.2	413.4
9	531.2	411.2
10	536.6	351.2
11	538.6	353.3
12	541.4	307.0
13	544.2	295.6
14	558.0	174.4
15	564.8	140.7
16	570.6	106.0
17	577.2	89.32
18	580.8	82.73
19	586.8	63.52
20	589.4	61.66
21	593.2	54.71
22	599.6	42.34
23	603.0	41.59
24	604.8	38.08
25	607.6	34.77
26	612.6	28.73
27	616.0	28.55
28	618.4	26.48
29	621.6	21.64
30	624.6	18.80
31	629.0	20.35
32	631.8	15.13
33	635.8	14.79
34	637.6	15.49
35	639.8	12.26
36	643.6	10.22
37	645.0	9.009
38	646.8	10.89
39	650.6	11.29
40	656.0	8.062
41	663.2	8.460
42	664.6	9.817
43	667.0	11.40
44	669.0	11.91
45	671.0	10.15
46	675.2	7.681
47	678.2	11.54
48	680.0	8.252
49	684.8	6.900
50	687.2	8.394
51	689.2	7.132
52	694.0	5.271
53	698.8	8.941
54	700.2	7.476
55	703.0	6.848
56	705.4	7.593
57	707.6	6.600
58	713.4	4.975
59	716.8	7.169
60	718.6	6.568
61	720.4	7.182
62	724.8	7.083
63	726.6	5.875
64	730.2	6.135
65	735.8	6.220
66	739.6	7.425
67	744.2	8.014
68	746.8	7.017
69	751.8	9.634
70	755.6	6.754
71	758.4	5.863
72	760.0	4.661
73	762.8	7.877
74	766.2	7.587
75	773.4	6.882
76	775.4	5.671

Data Points
nm	Data
480.0	14.00
481.0	25.48
482.0	27.14
483.0	24.00
484.0	37.80
485.0	40.42
486.0	43.44
487.0	60.38
488.0	69.52
489.0	85.63
490.0	97.82
491.0	107.6
492.0	124.6
493.0	149.3
494.0	173.6
495.0	206.6
496.0	244.0
497.0	261.9
498.0	296.9
499.0	348.6
500.0	390.8
501.0	377.9
502.0	428.9
503.0	455.6
504.0	492.3
505.0	498.5
506.0	542.1
507.0	525.6
508.0	563.5
509.0	572.7
510.0	588.1
511.0	579.8
512.0	567.1
513.0	593.2
514.0	578.0
515.0	577.2
516.0	550.2
517.0	546.6
518.0	525.8
519.0	525.4
520.0	508.8
521.0	508.2
522.0	480.8
523.0	493.2
524.0	477.7
525.0	491.8
526.0	451.4
527.0	456.8
528.0	433.3
529.0	428.1
530.0	430.2
531.0	418.2
532.0	422.2
533.0	393.5
534.0	402.0
535.0	371.3
536.0	355.7
537.0	373.1
538.0	360.5
539.0	359.6
540.0	334.5
541.0	327.0
542.0	319.3
543.0	318.1
544.0	299.2
545.0	311.6
546.0	303.6
547.0	270.4
548.0	281.5
549.0	258.1
550.0	255.2
551.0	244.3
552.0	240.1
553.0	230.0
554.0	226.1
555.0	196.0
556.0	202.1
557.0	183.7
558.0	174.4
559.0	177.9
560.0	189.6
561.0	162.7
562.0	166.2
563.0	147.2
564.0	155.4
565.0	142.6
566.0	153.2
567.0	149.5
568.0	140.3
569.0	118.2
570.0	117.3
571.0	111.6
572.0	119.0
573.0	113.3
574.0	106.5
575.0	106.3
576.0	96.72
577.0	90.61
578.0	92.90
579.0	85.95
580.0	87.47
581.0	85.87
582.0	83.33
583.0	82.32
584.0	78.27
585.0	74.49
586.0	71.68
587.0	67.81
588.0	75.13
589.0	67.66
590.0	68.83
591.0	68.83
592.0	56.60
593.0	57.60
594.0	59.68
595.0	59.11
596.0	53.49
597.0	52.76
598.0	51.11
599.0	48.68
600.0	48.64
601.0	48.62
602.0	51.95
603.0	41.59
604.0	42.23
605.0	43.38
606.0	47.15
607.0	35.71
608.0	37.26
609.0	40.58
610.0	34.96
611.0	33.56
612.0	34.15
613.0	31.26
614.0	32.37
615.0	34.20
616.0	28.55
617.0	31.38
618.0	28.49
619.0	30.75
620.0	29.93
621.0	26.21
622.0	23.78
623.0	25.17
624.0	22.26
625.0	23.67
626.0	25.90
627.0	24.99
628.0	21.55
629.0	20.35
630.0	22.23
631.0	19.05
632.0	15.69
633.0	17.88
634.0	20.70
635.0	16.60
636.0	15.56
637.0	18.38
638.0	18.61
639.0	15.95
640.0	13.37
641.0	15.88
642.0	17.33
643.0	14.18
644.0	13.61
645.0	9.009
646.0	16.01
647.0	12.87
648.0	14.42
649.0	13.68
650.0	16.49
651.0	14.72
652.0	17.54
653.0	15.54
654.0	18.12
655.0	14.13
656.0	8.062
657.0	10.77
658.0	13.54
659.0	14.01
660.0	10.90
661.0	12.89
662.0	13.14
663.0	10.15
664.0	13.23
665.0	11.93
666.0	12.84
667.0	11.40
668.0	16.39
669.0	11.91
670.0	14.49
671.0	10.15
672.0	15.31
673.0	11.88
674.0	16.80
675.0	10.90
676.0	11.30
677.0	13.19
678.0	13.06
679.0	14.75
680.0	8.252
681.0	8.527
682.0	10.38
683.0	12.02
684.0	10.48
685.0	8.488
686.0	8.998
687.0	9.193
688.0	11.81
689.0	7.534
690.0	8.916
691.0	9.105
692.0	7.784
693.0	12.99
694.0	5.271
695.0	7.924
696.0	9.884
697.0	10.99
698.0	9.450
699.0	12.15
700.0	10.22
701.0	15.07
702.0	11.95
703.0	6.848
704.0	11.46
705.0	8.709
706.0	10.22
707.0	11.34
708.0	8.002
709.0	7.512
710.0	8.049
711.0	9.148
712.0	11.88
713.0	5.325
714.0	10.93
715.0	14.96
716.0	7.084
717.0	7.319
718.0	10.68
719.0	8.800
720.0	9.742
721.0	9.375
722.0	9.933
723.0	7.711
724.0	7.618
725.0	8.443
726.0	10.14
727.0	6.129
728.0	10.77
729.0	9.362
730.0	9.016
731.0	11.27
732.0	10.91
733.0	8.567
734.0	7.208
735.0	7.702
736.0	11.02
737.0	11.53
738.0	12.37
739.0	8.805
740.0	7.762
741.0	11.17
742.0	12.39
743.0	11.02
744.0	8.045
745.0	11.21
746.0	8.575
747.0	7.081
748.0	9.642
749.0	11.12
750.0	9.775
751.0	10.01
752.0	10.34
753.0	11.65
754.0	9.315
755.0	8.823
756.0	8.703
757.0	8.747
758.0	8.500
759.0	10.31
760.0	4.661
761.0	11.60
762.0	10.39
763.0	9.269
764.0	10.78
765.0	7.369
766.0	9.507
767.0	9.557
768.0	6.884
769.0	8.398
770.0	9.637
771.0	9.252
772.0	9.151
773.0	9.433
774.0	7.916
775.0	9.049
776.0	8.672
777.0	8.637
778.0	6.691
779.0	7.602
780.0	9.505

Sample:	'wa-16(EM)
File name:	80.FDS
Run Date:	'18:00:38, 07/11/2024
Operator:	WXH
Comment:	'

Instrument
Model:	F-4600 FL Spectrophotometer
Serial Number:	3080-002
ROM Version:	5J24000 02

Instrument Parameters
Measurement type:	Wavelength scan
Scan mode:	Emission
Data mode:	Fluorescence
EX WL:	460.0 nm
EM  Start WL:	480.0 nm
EM  End WL:	780.0 nm
Scan speed:	1200 nm/min
Delay:	0.0 s
EX Slit:	2.5 nm
EM Slit:	2.5 nm
PMT Voltage:	600 V
Response:	Auto 
Corrected spectra:	Off
Shutter control:	On

Peak integration
Integration method:	Rectangular
Sensitivity:	1
Threshold:	1.000

Peaks
No.	Valley(nm)	Valley(Data)
1	484.0	31.44
2	508.8	527.5
3	515.6	540.5
4	517.4	535.6
5	524.4	444.8
6	528.0	428.6
7	533.8	361.2
8	548.0	252.0
9	559.6	157.0
10	563.0	148.7
11	571.6	103.1
12	574.0	108.2
13	579.4	80.06
14	586.4	62.63
15	589.8	62.93
16	593.0	48.05
17	601.8	38.26
18	603.4	35.11
19	610.6	29.99
20	613.0	27.05
21	617.4	22.97
22	619.8	20.89
23	626.2	15.42
24	629.2	15.61
25	632.8	16.08
26	635.4	14.90
27	639.2	15.22
28	642.2	14.89
29	644.6	13.38
30	646.2	12.04
31	648.4	9.969
32	651.4	10.49
33	656.6	10.53
34	659.6	9.344
35	663.4	10.01
36	666.0	10.84
37	670.4	8.695
38	672.0	7.331
39	676.4	7.721
40	680.6	9.386
41	684.2	7.838
42	687.0	8.931
43	690.0	8.916
44	692.0	8.763
45	694.6	8.093
46	699.8	10.08
47	703.8	6.801
48	705.4	7.463
49	709.0	6.262
50	712.4	6.491
51	717.2	7.095
52	720.4	7.938
53	722.6	7.814
54	728.0	6.724
55	731.8	7.666
56	734.0	6.305
57	737.2	7.424
58	743.0	4.471
59	745.6	8.551
60	748.4	7.664
61	752.2	8.197
62	756.6	7.836
63	761.8	8.077
64	764.4	8.228
65	769.6	7.200
66	772.6	7.128
67	774.0	6.207
68	776.0	5.213
69	780.0	9.238

Data Points
nm	Data
480.0	15.74
481.0	19.20
482.0	27.68
483.0	38.80
484.0	31.44
485.0	42.05
486.0	46.79
487.0	46.93
488.0	62.92
489.0	74.81
490.0	96.35
491.0	102.0
492.0	134.3
493.0	154.6
494.0	187.2
495.0	208.5
496.0	238.5
497.0	272.1
498.0	296.8
499.0	346.1
500.0	368.9
501.0	395.0
502.0	437.9
503.0	482.9
504.0	488.3
505.0	513.5
506.0	538.2
507.0	576.7
508.0	559.6
509.0	553.1
510.0	582.8
511.0	601.0
512.0	603.8
513.0	568.8
514.0	555.9
515.0	552.1
516.0	554.1
517.0	543.3
518.0	539.8
519.0	551.7
520.0	531.4
521.0	525.7
522.0	487.6
523.0	480.6
524.0	467.6
525.0	471.9
526.0	452.5
527.0	462.8
528.0	428.6
529.0	438.7
530.0	430.2
531.0	408.7
532.0	403.1
533.0	375.9
534.0	365.0
535.0	377.2
536.0	400.4
537.0	366.9
538.0	358.4
539.0	353.0
540.0	352.7
541.0	321.2
542.0	316.5
543.0	314.6
544.0	296.6
545.0	270.7
546.0	272.6
547.0	254.4
548.0	252.0
549.0	249.0
550.0	237.9
551.0	248.5
552.0	233.2
553.0	230.6
554.0	225.5
555.0	221.8
556.0	200.5
557.0	200.4
558.0	182.1
559.0	166.9
560.0	174.3
561.0	165.7
562.0	157.6
563.0	148.7
564.0	154.6
565.0	157.2
566.0	156.4
567.0	142.4
568.0	136.1
569.0	120.9
570.0	122.2
571.0	120.6
572.0	113.3
573.0	113.5
574.0	108.2
575.0	111.5
576.0	102.6
577.0	96.66
578.0	95.46
579.0	85.65
580.0	87.76
581.0	81.49
582.0	92.11
583.0	81.72
584.0	72.37
585.0	67.89
586.0	69.28
587.0	71.77
588.0	72.41
589.0	63.43
590.0	64.19
591.0	61.11
592.0	57.98
593.0	48.05
594.0	58.62
595.0	52.97
596.0	53.54
597.0	55.28
598.0	47.10
599.0	49.29
600.0	43.95
601.0	45.85
602.0	44.80
603.0	42.94
604.0	38.17
605.0	42.38
606.0	37.92
607.0	41.09
608.0	35.53
609.0	36.44
610.0	31.69
611.0	39.52
612.0	30.39
613.0	27.05
614.0	32.16
615.0	25.69
616.0	33.85
617.0	25.73
618.0	28.35
619.0	27.46
620.0	21.70
621.0	26.65
622.0	25.93
623.0	26.53
624.0	27.52
625.0	20.41
626.0	18.37
627.0	20.15
628.0	16.60
629.0	21.20
630.0	21.63
631.0	26.36
632.0	18.40
633.0	20.67
634.0	18.41
635.0	18.45
636.0	21.83
637.0	18.86
638.0	19.03
639.0	15.77
640.0	23.11
641.0	15.92
642.0	15.36
643.0	19.82
644.0	18.65
645.0	16.56
646.0	14.59
647.0	14.79
648.0	11.44
649.0	14.11
650.0	13.78
651.0	15.64
652.0	11.67
653.0	15.95
654.0	14.87
655.0	10.27
656.0	12.35
657.0	12.98
658.0	11.15
659.0	12.08
660.0	9.748
661.0	16.61
662.0	11.89
663.0	10.32
664.0	13.29
665.0	16.07
666.0	10.84
667.0	12.19
668.0	12.94
669.0	10.20
670.0	9.301
671.0	10.64
672.0	7.331
673.0	13.06
674.0	10.25
675.0	9.145
676.0	9.528
677.0	9.953
678.0	8.741
679.0	13.56
680.0	10.80
681.0	13.06
682.0	13.57
683.0	9.786
684.0	8.573
685.0	12.29
686.0	11.13
687.0	8.931
688.0	12.77
689.0	13.28
690.0	8.916
691.0	11.72
692.0	8.763
693.0	12.08
694.0	10.64
695.0	8.843
696.0	11.39
697.0	12.06
698.0	11.85
699.0	10.24
700.0	11.75
701.0	12.46
702.0	11.95
703.0	10.31
704.0	11.59
705.0	8.874
706.0	9.168
707.0	8.065
708.0	7.941
709.0	6.262
710.0	9.312
711.0	10.31
712.0	7.868
713.0	8.352
714.0	9.757
715.0	9.925
716.0	8.712
717.0	7.601
718.0	10.46
719.0	13.10
720.0	10.30
721.0	10.96
722.0	10.90
723.0	10.49
724.0	10.17
725.0	11.13
726.0	11.61
727.0	9.720
728.0	6.724
729.0	7.333
730.0	10.37
731.0	10.63
732.0	9.886
733.0	10.01
734.0	6.305
735.0	10.81
736.0	10.30
737.0	9.552
738.0	8.486
739.0	9.149
740.0	15.71
741.0	11.91
742.0	7.897
743.0	4.471
744.0	9.674
745.0	11.61
746.0	11.10
747.0	12.37
748.0	9.398
749.0	10.27
750.0	11.41
751.0	10.67
752.0	8.898
753.0	9.132
754.0	8.983
755.0	8.882
756.0	7.974
757.0	13.32
758.0	9.990
759.0	11.20
760.0	10.83
761.0	10.07
762.0	8.797
763.0	9.633
764.0	9.110
765.0	9.121
766.0	11.01
767.0	10.87
768.0	8.621
769.0	7.715
770.0	8.921
771.0	8.443
772.0	10.65
773.0	10.09
774.0	6.207
775.0	10.29
776.0	5.213
777.0	9.822
778.0	10.65
779.0	9.218
780.0	9.238

Sample:	'wa-17(EM)
File name:	80.FDS
Run Date:	'18:01:08, 07/11/2024
Operator:	WXH
Comment:	'

Instrument
Model:	F-4600 FL Spectrophotometer
Serial Number:	3080-002
ROM Version:	5J24000 02

Instrument Parameters
Measurement type:	Wavelength scan
Scan mode:	Emission
Data mode:	Fluorescence
EX WL:	460.0 nm
EM  Start WL:	480.0 nm
EM  End WL:	780.0 nm
Scan speed:	1200 nm/min
Delay:	0.0 s
EX Slit:	2.5 nm
EM Slit:	2.5 nm
PMT Voltage:	600 V
Response:	Auto 
Corrected spectra:	Off
Shutter control:	On

Peak integration
Integration method:	Rectangular
Sensitivity:	1
Threshold:	1.000

Peaks
No.	Valley(nm)	Valley(Data)
1	484.2	32.24
2	510.2	565.5
3	516.4	531.3
4	519.2	527.3
5	522.6	475.2
6	524.4	479.6
7	527.2	439.2
8	529.8	428.0
9	540.4	316.8
10	546.0	257.1
11	551.6	222.1
12	556.0	187.8
13	558.2	176.0
14	561.4	151.6
15	563.8	143.1
16	567.2	124.9
17	571.4	105.2
18	574.0	98.08
19	577.6	92.58
20	584.2	68.30
21	588.0	58.53
22	592.2	55.65
23	595.8	45.03
24	598.0	44.64
25	600.6	39.15
26	606.0	34.69
27	608.4	33.96
28	612.4	29.44
29	615.2	24.99
30	618.4	25.56
31	622.4	22.73
32	630.8	14.33
33	632.4	16.80
34	635.6	13.36
35	637.4	14.25
36	640.8	12.11
37	645.0	10.56
38	646.2	12.51
39	652.2	11.36
40	655.8	10.67
41	657.4	8.762
42	662.4	10.02
43	664.6	9.956
44	666.4	8.860
45	670.2	9.571
46	678.0	6.984
47	682.6	9.767
48	686.8	5.807
49	690.6	8.124
50	693.0	7.526
51	697.6	6.095
52	700.4	9.252
53	704.0	7.776
54	706.8	7.292
55	711.2	5.602
56	716.6	6.413
57	720.4	8.623
58	724.4	7.118
59	728.8	9.565
60	733.2	5.147
61	737.0	6.141
62	739.4	8.237
63	742.6	6.791
64	745.8	6.153
65	748.4	6.694
66	753.8	5.204
67	758.0	5.688
68	761.2	6.532
69	764.0	6.506
70	766.6	5.055
71	771.4	7.035
72	773.0	7.399
73	774.4	6.990
74	778.0	6.314

Data Points
nm	Data
480.0	21.98
481.0	23.68
482.0	28.24
483.0	43.99
484.0	33.02
485.0	45.10
486.0	45.98
487.0	64.17
488.0	63.77
489.0	79.20
490.0	109.9
491.0	111.9
492.0	140.5
493.0	155.8
494.0	187.7
495.0	226.5
496.0	236.8
497.0	285.3
498.0	311.8
499.0	341.0
500.0	386.3
501.0	388.0
502.0	417.4
503.0	453.0
504.0	519.5
505.0	501.5
506.0	556.8
507.0	567.4
508.0	578.5
509.0	571.7
510.0	584.5
511.0	582.1
512.0	585.2
513.0	588.4
514.0	572.3
515.0	565.0
516.0	553.5
517.0	544.9
518.0	547.6
519.0	533.1
520.0	541.2
521.0	517.8
522.0	486.9
523.0	499.4
524.0	482.8
525.0	499.3
526.0	485.5
527.0	445.6
528.0	466.0
529.0	441.1
530.0	433.8
531.0	429.4
532.0	419.6
533.0	381.9
534.0	393.0
535.0	390.3
536.0	375.6
537.0	362.4
538.0	363.0
539.0	345.4
540.0	321.9
541.0	321.7
542.0	317.5
543.0	311.8
544.0	310.8
545.0	286.1
546.0	257.1
547.0	274.5
548.0	269.0
549.0	266.0
550.0	252.8
551.0	244.9
552.0	230.3
553.0	239.3
554.0	208.5
555.0	201.2
556.0	187.8
557.0	200.3
558.0	178.8
559.0	179.2
560.0	182.4
561.0	166.5
562.0	161.3
563.0	170.9
564.0	145.4
565.0	153.7
566.0	144.0
567.0	128.3
568.0	140.1
569.0	142.9
570.0	118.4
571.0	113.8
572.0	123.3
573.0	115.4
574.0	98.08
575.0	109.6
576.0	96.94
577.0	96.99
578.0	94.70
579.0	95.38
580.0	92.19
581.0	96.43
582.0	89.61
583.0	80.02
584.0	73.92
585.0	71.48
586.0	76.17
587.0	66.27
588.0	58.53
589.0	68.31
590.0	72.79
591.0	64.15
592.0	60.91
593.0	62.79
594.0	58.84
595.0	52.40
596.0	45.85
597.0	48.28
598.0	44.64
599.0	55.95
600.0	47.00
601.0	43.91
602.0	46.85
603.0	42.49
604.0	48.14
605.0	37.76
606.0	34.69
607.0	42.00
608.0	37.77
609.0	36.47
610.0	37.43
611.0	34.54
612.0	31.47
613.0	30.01
614.0	33.53
615.0	28.36
616.0	30.65
617.0	32.13
618.0	28.95
619.0	27.95
620.0	30.32
621.0	23.11
622.0	25.99
623.0	27.25
624.0	29.19
625.0	26.38
626.0	23.44
627.0	21.78
628.0	22.82
629.0	22.15
630.0	20.65
631.0	18.79
632.0	22.52
633.0	19.79
634.0	25.85
635.0	18.72
636.0	15.66
637.0	17.18
638.0	15.78
639.0	17.50
640.0	19.51
641.0	12.31
642.0	14.09
643.0	14.20
644.0	15.14
645.0	10.56
646.0	15.18
647.0	15.15
648.0	16.01
649.0	13.88
650.0	13.61
651.0	11.45
652.0	11.84
653.0	14.88
654.0	14.41
655.0	11.23
656.0	12.99
657.0	10.28
658.0	11.37
659.0	11.20
660.0	12.66
661.0	12.56
662.0	12.42
663.0	12.78
664.0	10.75
665.0	12.53
666.0	10.85
667.0	9.619
668.0	10.01
669.0	13.24
670.0	11.11
671.0	11.33
672.0	12.00
673.0	10.58
674.0	12.48
675.0	11.85
676.0	13.51
677.0	8.173
678.0	6.984
679.0	10.52
680.0	10.56
681.0	13.96
682.0	15.56
683.0	11.37
684.0	9.716
685.0	13.14
686.0	10.13
687.0	8.476
688.0	13.87
689.0	12.25
690.0	11.66
691.0	12.45
692.0	14.04
693.0	7.526
694.0	10.02
695.0	14.80
696.0	10.55
697.0	8.582
698.0	9.649
699.0	16.39
700.0	10.99
701.0	10.96
702.0	10.20
703.0	9.339
704.0	7.776
705.0	8.719
706.0	8.644
707.0	8.668
708.0	7.634
709.0	9.122
710.0	8.646
711.0	7.274
712.0	9.116
713.0	8.470
714.0	8.044
715.0	9.323
716.0	10.81
717.0	11.42
718.0	12.56
719.0	14.23
720.0	9.941
721.0	10.62
722.0	10.60
723.0	8.948
724.0	9.779
725.0	9.770
726.0	11.97
727.0	10.47
728.0	13.25
729.0	10.37
730.0	11.71
731.0	10.67
732.0	11.45
733.0	6.774
734.0	7.809
735.0	11.17
736.0	9.422
737.0	6.141
738.0	10.26
739.0	9.708
740.0	9.754
741.0	11.55
742.0	7.566
743.0	9.738
744.0	11.87
745.0	10.42
746.0	9.586
747.0	9.956
748.0	7.654
749.0	7.924
750.0	10.85
751.0	9.276
752.0	13.86
753.0	9.831
754.0	6.459
755.0	10.27
756.0	11.35
757.0	11.69
758.0	5.688
759.0	13.73
760.0	12.99
761.0	6.736
762.0	13.59
763.0	10.51
764.0	6.506
765.0	8.349
766.0	7.025
767.0	8.964
768.0	7.000
769.0	7.670
770.0	11.67
771.0	9.817
772.0	8.576
773.0	7.399
774.0	9.048
775.0	8.775
776.0	7.784
777.0	9.389
778.0	6.314
779.0	6.997
780.0	10.88

Sample:	'wa-18(EM)
File name:	80.FDS
Run Date:	'18:01:38, 07/11/2024
Operator:	WXH
Comment:	'

Instrument
Model:	F-4600 FL Spectrophotometer
Serial Number:	3080-002
ROM Version:	5J24000 02

Instrument Parameters
Measurement type:	Wavelength scan
Scan mode:	Emission
Data mode:	Fluorescence
EX WL:	460.0 nm
EM  Start WL:	480.0 nm
EM  End WL:	780.0 nm
Scan speed:	1200 nm/min
Delay:	0.0 s
EX Slit:	2.5 nm
EM Slit:	2.5 nm
PMT Voltage:	600 V
Response:	Auto 
Corrected spectra:	Off
Shutter control:	On

Peak integration
Integration method:	Rectangular
Sensitivity:	1
Threshold:	1.000

Peaks
No.	Valley(nm)	Valley(Data)
1	507.6	527.7
2	511.0	554.7
3	515.0	529.9
4	522.6	476.5
5	529.2	424.9
6	530.8	398.1
7	534.4	368.4
8	537.2	344.9
9	543.4	305.9
10	556.0	190.4
11	558.0	168.3
12	561.0	149.5
13	567.2	126.6
14	569.8	120.9
15	576.0	93.85
16	582.6	73.12
17	584.8	76.38
18	591.2	56.60
19	595.6	48.81
20	598.2	43.79
21	601.8	39.38
22	605.0	31.04
23	609.2	28.94
24	614.0	25.57
25	623.8	18.82
26	632.2	18.09
27	637.0	15.29
28	640.2	15.94
29	641.6	15.40
30	645.0	10.17
31	649.0	10.47
32	652.4	8.757
33	658.8	8.264
34	661.6	8.205
35	665.2	10.22
36	667.6	9.638
37	669.2	9.929
38	672.2	8.016
39	674.8	8.828
40	678.0	8.330
41	682.0	8.586
42	686.2	7.680
43	691.6	6.859
44	694.4	5.901
45	699.6	6.491
46	704.0	9.543
47	707.8	5.924
48	713.8	5.272
49	718.6	8.362
50	720.2	6.312
51	725.8	7.123
52	728.0	6.965
53	731.2	6.036
54	735.2	3.444
55	738.0	7.817
56	740.8	5.933
57	744.4	7.582
58	747.0	6.080
59	750.6	7.450
60	754.6	11.37
61	757.4	6.933
62	761.0	7.288
63	762.8	6.432
64	767.4	7.975
65	773.0	7.088
66	780.0	7.236

Data Points
nm	Data
480.0	29.13
481.0	20.41
482.0	23.78
483.0	26.05
484.0	29.55
485.0	37.63
486.0	44.38
487.0	54.39
488.0	74.08
489.0	79.68
490.0	88.82
491.0	110.0
492.0	128.6
493.0	162.3
494.0	190.6
495.0	201.8
496.0	247.0
497.0	279.6
498.0	299.4
499.0	336.2
500.0	370.3
501.0	398.4
502.0	445.0
503.0	465.9
504.0	479.7
505.0	533.6
506.0	539.1
507.0	545.3
508.0	574.2
509.0	575.3
510.0	570.4
511.0	554.7
512.0	572.1
513.0	569.0
514.0	532.1
515.0	529.9
516.0	543.9
517.0	549.2
518.0	547.7
519.0	513.7
520.0	519.6
521.0	510.2
522.0	498.0
523.0	494.7
524.0	475.1
525.0	460.2
526.0	456.0
527.0	460.0
528.0	448.9
529.0	425.0
530.0	424.4
531.0	408.5
532.0	417.2
533.0	400.2
534.0	374.9
535.0	384.5
536.0	379.9
537.0	357.5
538.0	365.0
539.0	359.7
540.0	354.8
541.0	323.2
542.0	326.7
543.0	306.7
544.0	309.5
545.0	304.0
546.0	293.4
547.0	273.5
548.0	258.7
549.0	252.4
550.0	240.1
551.0	237.5
552.0	235.2
553.0	231.3
554.0	219.6
555.0	199.1
556.0	190.4
557.0	207.6
558.0	168.3
559.0	181.2
560.0	164.4
561.0	149.5
562.0	165.8
563.0	171.4
564.0	167.9
565.0	157.4
566.0	148.7
567.0	129.0
568.0	129.6
569.0	133.5
570.0	127.9
571.0	129.2
572.0	118.1
573.0	111.0
574.0	110.6
575.0	98.45
576.0	93.85
577.0	102.7
578.0	99.41
579.0	102.6
580.0	98.37
581.0	90.24
582.0	75.90
583.0	82.21
584.0	77.49
585.0	80.65
586.0	80.54
587.0	74.32
588.0	70.19
589.0	65.09
590.0	62.51
591.0	56.67
592.0	57.66
593.0	61.26
594.0	55.46
595.0	53.54
596.0	52.45
597.0	50.50
598.0	45.13
599.0	50.32
600.0	50.91
601.0	48.68
602.0	39.72
603.0	42.98
604.0	40.64
605.0	31.04
606.0	41.08
607.0	38.95
608.0	42.43
609.0	32.98
610.0	31.40
611.0	37.95
612.0	33.17
613.0	30.46
614.0	25.57
615.0	27.43
616.0	33.35
617.0	31.02
618.0	28.12
619.0	27.12
620.0	26.30
621.0	20.75
622.0	21.17
623.0	22.40
624.0	18.99
625.0	21.72
626.0	26.29
627.0	25.49
628.0	25.03
629.0	24.90
630.0	24.32
631.0	18.29
632.0	19.87
633.0	22.53
634.0	22.03
635.0	19.16
636.0	15.99
637.0	15.29
638.0	16.06
639.0	22.88
640.0	16.42
641.0	19.95
642.0	17.54
643.0	14.42
644.0	15.33
645.0	10.17
646.0	14.49
647.0	14.93
648.0	13.61
649.0	10.47
650.0	14.45
651.0	11.65
652.0	10.32
653.0	14.95
654.0	14.12
655.0	18.43
656.0	18.66
657.0	13.99
658.0	9.198
659.0	10.73
660.0	15.09
661.0	11.73
662.0	9.552
663.0	10.83
664.0	13.49
665.0	12.22
666.0	13.95
667.0	15.51
668.0	10.68
669.0	12.12
670.0	10.39
671.0	13.34
672.0	10.34
673.0	11.47
674.0	11.17
675.0	9.075
676.0	10.64
677.0	11.79
678.0	8.330
679.0	8.860
680.0	13.17
681.0	12.12
682.0	8.586
683.0	9.352
684.0	8.682
685.0	10.47
686.0	8.377
687.0	8.115
688.0	9.363
689.0	9.024
690.0	10.76
691.0	12.31
692.0	7.672
693.0	9.616
694.0	7.392
695.0	7.524
696.0	7.874
697.0	10.09
698.0	9.501
699.0	8.619
700.0	11.07
701.0	8.176
702.0	11.71
703.0	8.798
704.0	9.543
705.0	12.01
706.0	11.22
707.0	9.853
708.0	6.469
709.0	10.75
710.0	10.87
711.0	7.984
712.0	9.161
713.0	8.194
714.0	5.611
715.0	11.17
716.0	10.83
717.0	13.12
718.0	9.521
719.0	11.18
720.0	6.937
721.0	8.385
722.0	7.963
723.0	9.964
724.0	8.420
725.0	9.835
726.0	7.764
727.0	10.04
728.0	6.965
729.0	8.613
730.0	9.036
731.0	6.298
732.0	12.98
733.0	10.27
734.0	8.195
735.0	4.571
736.0	8.599
737.0	12.40
738.0	7.817
739.0	12.62
740.0	10.86
741.0	8.573
742.0	11.55
743.0	12.41
744.0	10.37
745.0	8.263
746.0	9.732
747.0	6.080
748.0	6.773
749.0	11.15
750.0	10.00
751.0	11.06
752.0	11.80
753.0	14.92
754.0	11.88
755.0	13.08
756.0	8.738
757.0	7.082
758.0	12.72
759.0	8.994
760.0	10.60
761.0	7.288
762.0	10.08
763.0	7.600
764.0	7.381
765.0	10.22
766.0	10.38
767.0	8.992
768.0	10.92
769.0	13.62
770.0	15.19
771.0	9.638
772.0	9.432
773.0	7.088
774.0	10.95
775.0	9.437
776.0	11.47
777.0	8.201
778.0	10.85
779.0	12.84
780.0	7.236

Sample:	'wa-19(EM)
File name:	80.FDS
Run Date:	'18:02:09, 07/11/2024
Operator:	WXH
Comment:	'

Instrument
Model:	F-4600 FL Spectrophotometer
Serial Number:	3080-002
ROM Version:	5J24000 02

Instrument Parameters
Measurement type:	Wavelength scan
Scan mode:	Emission
Data mode:	Fluorescence
EX WL:	460.0 nm
EM  Start WL:	480.0 nm
EM  End WL:	780.0 nm
Scan speed:	1200 nm/min
Delay:	0.0 s
EX Slit:	2.5 nm
EM Slit:	2.5 nm
PMT Voltage:	600 V
Response:	Auto 
Corrected spectra:	Off
Shutter control:	On

Peak integration
Integration method:	Rectangular
Sensitivity:	1
Threshold:	1.000

Peaks
No.	Valley(nm)	Valley(Data)
1	508.4	546.3
2	513.8	552.9
3	524.4	463.9
4	526.6	452.8
5	531.2	412.8
6	536.6	354.2
7	547.2	264.7
8	559.4	173.7
9	561.8	162.6
10	567.0	119.8
11	571.0	109.6
12	574.4	101.3
13	576.2	95.48
14	578.4	86.01
15	580.8	79.18
16	586.6	63.14
17	589.6	59.04
18	591.8	56.12
19	594.0	52.99
20	596.6	43.97
21	601.8	41.78
22	603.6	41.10
23	608.6	33.82
24	610.2	26.31
25	612.2	32.42
26	616.6	31.28
27	620.8	20.99
28	622.8	22.39
29	625.6	24.21
30	628.4	17.94
31	631.8	16.42
32	636.8	15.06
33	640.0	11.66
34	642.2	12.77
35	648.0	10.99
36	650.6	10.35
37	653.8	11.18
38	658.6	10.17
39	661.8	9.873
40	666.8	10.71
41	670.2	9.798
42	675.8	9.449
43	678.8	8.477
44	682.0	9.357
45	683.8	8.241
46	686.2	6.029
47	690.6	8.331
48	693.6	10.72
49	695.8	8.871
50	698.8	9.092
51	701.6	8.529
52	704.4	5.933
53	708.4	8.319
54	710.2	7.345
55	712.8	7.027
56	716.8	6.852
57	720.4	7.534
58	724.8	7.159
59	729.0	5.305
60	733.0	7.939
61	735.0	7.390
62	738.4	5.181
63	743.2	4.937
64	748.8	8.622
65	752.6	7.499
66	755.0	8.724
67	762.6	5.415
68	768.0	5.601
69	771.8	7.180
70	780.0	9.135

Data Points
nm	Data
480.0	12.10
481.0	21.04
482.0	23.06
483.0	30.93
484.0	37.24
485.0	39.69
486.0	47.42
487.0	45.77
488.0	66.81
489.0	80.15
490.0	85.61
491.0	126.2
492.0	138.4
493.0	145.9
494.0	184.1
495.0	211.6
496.0	238.8
497.0	271.8
498.0	309.7
499.0	333.0
500.0	366.3
501.0	419.1
502.0	444.4
503.0	458.7
504.0	487.4
505.0	507.2
506.0	548.8
507.0	591.3
508.0	556.3
509.0	547.8
510.0	565.6
511.0	572.9
512.0	598.0
513.0	573.6
514.0	571.0
515.0	563.1
516.0	552.9
517.0	538.8
518.0	519.0
519.0	511.1
520.0	521.8
521.0	502.4
522.0	491.6
523.0	488.8
524.0	471.6
525.0	478.3
526.0	475.2
527.0	461.1
528.0	461.9
529.0	445.9
530.0	444.0
531.0	424.7
532.0	433.6
533.0	431.2
534.0	403.8
535.0	366.0
536.0	366.2
537.0	355.5
538.0	363.3
539.0	367.6
540.0	341.3
541.0	329.4
542.0	315.6
543.0	309.9
544.0	289.4
545.0	290.6
546.0	280.7
547.0	276.4
548.0	271.8
549.0	275.0
550.0	261.9
551.0	241.7
552.0	236.1
553.0	242.1
554.0	226.7
555.0	211.0
556.0	214.2
557.0	200.4
558.0	186.8
559.0	187.2
560.0	178.7
561.0	171.4
562.0	167.2
563.0	167.2
564.0	147.4
565.0	119.9
566.0	129.2
567.0	119.8
568.0	126.6
569.0	128.1
570.0	117.6
571.0	109.6
572.0	111.5
573.0	111.6
574.0	107.1
575.0	111.4
576.0	98.52
577.0	100.0
578.0	95.35
579.0	91.94
580.0	88.43
581.0	82.20
582.0	84.61
583.0	86.01
584.0	82.67
585.0	75.86
586.0	67.19
587.0	69.09
588.0	72.42
589.0	62.22
590.0	61.38
591.0	62.92
592.0	57.46
593.0	65.87
594.0	52.99
595.0	59.74
596.0	55.04
597.0	56.57
598.0	49.89
599.0	44.26
600.0	51.44
601.0	47.03
602.0	44.51
603.0	46.42
604.0	41.83
605.0	48.47
606.0	44.75
607.0	37.51
608.0	36.91
609.0	41.23
610.0	27.01
611.0	34.11
612.0	33.60
613.0	38.12
614.0	31.32
615.0	32.60
616.0	34.23
617.0	35.34
618.0	29.99
619.0	28.35
620.0	27.40
621.0	25.84
622.0	27.01
623.0	24.38
624.0	26.62
625.0	25.89
626.0	25.22
627.0	25.75
628.0	21.61
629.0	23.06
630.0	18.01
631.0	19.30
632.0	17.45
633.0	21.25
634.0	19.26
635.0	18.78
636.0	16.37
637.0	16.09
638.0	25.71
639.0	22.25
640.0	11.66
641.0	16.43
642.0	14.95
643.0	15.66
644.0	16.37
645.0	20.31
646.0	19.09
647.0	14.26
648.0	10.99
649.0	13.46
650.0	13.80
651.0	12.42
652.0	10.56
653.0	15.29
654.0	12.01
655.0	13.34
656.0	16.51
657.0	13.00
658.0	10.20
659.0	13.23
660.0	15.17
661.0	12.86
662.0	10.77
663.0	14.30
664.0	15.73
665.0	14.07
666.0	13.76
667.0	11.54
668.0	14.09
669.0	11.29
670.0	12.95
671.0	11.36
672.0	12.43
673.0	11.66
674.0	13.56
675.0	11.12
676.0	10.76
677.0	14.92
678.0	10.48
679.0	11.73
680.0	12.65
681.0	11.53
682.0	9.357
683.0	11.69
684.0	9.516
685.0	9.342
686.0	7.265
687.0	13.06
688.0	10.91
689.0	10.87
690.0	9.026
691.0	11.42
692.0	10.84
693.0	12.34
694.0	11.56
695.0	15.10
696.0	10.74
697.0	9.687
698.0	11.98
699.0	11.92
700.0	13.44
701.0	10.25
702.0	9.562
703.0	15.50
704.0	7.312
705.0	8.546
706.0	16.06
707.0	12.43
708.0	10.46
709.0	10.95
710.0	7.817
711.0	9.042
712.0	7.228
713.0	8.762
714.0	11.64
715.0	10.22
716.0	9.544
717.0	7.488
718.0	10.38
719.0	6.642
720.0	8.259
721.0	8.791
722.0	9.684
723.0	10.88
724.0	9.720
725.0	11.69
726.0	10.20
727.0	10.84
728.0	11.15
729.0	5.305
730.0	10.30
731.0	11.02
732.0	10.65
733.0	7.939
734.0	13.17
735.0	7.390
736.0	11.93
737.0	8.689
738.0	5.266
739.0	7.206
740.0	9.171
741.0	9.274
742.0	11.08
743.0	7.792
744.0	7.255
745.0	12.58
746.0	9.023
747.0	8.640
748.0	12.38
749.0	8.738
750.0	10.90
751.0	10.43
752.0	8.516
753.0	10.39
754.0	10.35
755.0	8.724
756.0	9.937
757.0	12.69
758.0	11.28
759.0	13.41
760.0	13.65
761.0	7.795
762.0	7.785
763.0	9.236
764.0	9.241
765.0	10.41
766.0	8.618
767.0	8.872
768.0	5.601
769.0	5.629
770.0	4.452
771.0	10.41
772.0	7.650
773.0	10.93
774.0	11.06
775.0	9.942
776.0	11.91
777.0	10.00
778.0	9.723
779.0	6.313
780.0	9.135

Sample:	'wa-20(EM)
File name:	80.FDS
Run Date:	'18:02:39, 07/11/2024
Operator:	WXH
Comment:	'

Instrument
Model:	F-4600 FL Spectrophotometer
Serial Number:	3080-002
ROM Version:	5J24000 02

Instrument Parameters
Measurement type:	Wavelength scan
Scan mode:	Emission
Data mode:	Fluorescence
EX WL:	460.0 nm
EM  Start WL:	480.0 nm
EM  End WL:	780.0 nm
Scan speed:	1200 nm/min
Delay:	0.0 s
EX Slit:	2.5 nm
EM Slit:	2.5 nm
PMT Voltage:	600 V
Response:	Auto 
Corrected spectra:	Off
Shutter control:	On

Peak integration
Integration method:	Rectangular
Sensitivity:	1
Threshold:	1.000

Peaks
No.	Valley(nm)	Valley(Data)
1	511.8	563.2
2	514.8	547.5
3	521.6	484.9
4	528.4	416.0
5	538.0	344.7
6	541.6	313.7
7	549.8	230.9
8	558.0	178.1
9	563.0	146.7
10	569.6	111.5
11	571.2	115.5
12	575.2	94.27
13	577.8	84.45
14	583.4	69.86
15	587.8	57.76
16	590.2	55.36
17	593.4	51.08
18	598.2	45.32
19	601.8	40.50
20	605.6	34.25
21	608.2	27.29
22	610.4	27.01
23	618.2	22.59
24	621.8	20.53
25	627.2	17.81
26	633.0	13.98
27	634.8	17.68
28	640.6	12.57
29	644.0	13.44
30	653.4	8.239
31	655.4	10.85
32	659.2	10.06
33	667.2	9.147
34	669.2	9.661
35	672.6	8.727
36	675.8	11.19
37	678.2	6.201
38	682.4	10.92
39	687.2	6.235
40	690.8	7.430
41	694.2	5.793
42	698.0	7.308
43	701.4	8.694
44	704.8	8.352
45	708.6	7.566
46	711.2	7.782
47	715.2	7.928
48	718.4	8.133
49	720.0	9.399
50	723.0	7.915
51	727.0	4.093
52	730.8	8.327
53	733.6	7.892
54	737.0	8.436
55	742.4	6.182
56	747.8	7.512
57	749.6	6.096
58	752.2	7.244
59	754.0	7.419
60	759.2	8.404
61	760.6	5.303
62	763.4	6.695
63	767.2	7.261
64	769.0	6.596
65	772.8	6.396
66	776.4	6.498

Data Points
nm	Data
480.0	30.48
481.0	22.73
482.0	29.12
483.0	38.29
484.0	37.36
485.0	36.59
486.0	51.44
487.0	57.21
488.0	65.14
489.0	79.18
490.0	97.64
491.0	104.6
492.0	126.7
493.0	137.7
494.0	158.4
495.0	191.0
496.0	250.2
497.0	272.1
498.0	279.7
499.0	334.4
500.0	375.4
501.0	388.1
502.0	447.3
503.0	467.1
504.0	497.9
505.0	520.5
506.0	550.4
507.0	559.2
508.0	555.9
509.0	566.4
510.0	580.6
511.0	587.0
512.0	580.9
513.0	567.4
514.0	565.4
515.0	568.7
516.0	552.5
517.0	546.1
518.0	533.7
519.0	536.7
520.0	513.7
521.0	511.8
522.0	487.8
523.0	506.3
524.0	494.3
525.0	475.3
526.0	457.1
527.0	463.1
528.0	428.0
529.0	445.0
530.0	456.6
531.0	413.9
532.0	394.5
533.0	397.3
534.0	380.0
535.0	393.4
536.0	384.4
537.0	374.9
538.0	344.7
539.0	356.0
540.0	355.6
541.0	320.1
542.0	317.1
543.0	315.9
544.0	291.9
545.0	299.2
546.0	289.2
547.0	277.0
548.0	255.5
549.0	251.2
550.0	238.3
551.0	238.5
552.0	238.7
553.0	222.4
554.0	208.4
555.0	201.3
556.0	194.9
557.0	181.1
558.0	178.1
559.0	195.4
560.0	175.1
561.0	161.5
562.0	164.1
563.0	146.7
564.0	154.9
565.0	157.6
566.0	147.6
567.0	139.9
568.0	136.0
569.0	123.7
570.0	121.2
571.0	117.0
572.0	118.1
573.0	121.1
574.0	99.66
575.0	97.03
576.0	103.1
577.0	100.1
578.0	89.70
579.0	91.96
580.0	96.80
581.0	91.85
582.0	90.25
583.0	78.56
584.0	74.41
585.0	80.24
586.0	80.98
587.0	64.99
588.0	62.49
589.0	70.48
590.0	60.64
591.0	64.48
592.0	64.17
593.0	58.34
594.0	55.14
595.0	62.78
596.0	56.08
597.0	53.74
598.0	50.62
599.0	50.72
600.0	47.98
601.0	48.08
602.0	44.28
603.0	43.16
604.0	43.59
605.0	41.75
606.0	41.99
607.0	42.33
608.0	28.92
609.0	31.15
610.0	30.80
611.0	30.22
612.0	30.33
613.0	36.42
614.0	32.52
615.0	33.59
616.0	38.32
617.0	26.59
618.0	27.73
619.0	26.34
620.0	29.81
621.0	22.82
622.0	21.50
623.0	24.34
624.0	27.73
625.0	24.00
626.0	24.11
627.0	17.94
628.0	17.96
629.0	20.85
630.0	22.35
631.0	22.66
632.0	21.54
633.0	13.98
634.0	19.31
635.0	17.89
636.0	19.95
637.0	23.17
638.0	21.82
639.0	20.44
640.0	14.05
641.0	17.31
642.0	17.03
643.0	15.04
644.0	13.44
645.0	17.00
646.0	20.26
647.0	18.25
648.0	16.33
649.0	14.17
650.0	13.73
651.0	12.43
652.0	12.30
653.0	10.55
654.0	12.19
655.0	17.14
656.0	15.27
657.0	15.95
658.0	13.50
659.0	11.71
660.0	13.79
661.0	11.93
662.0	11.05
663.0	12.85
664.0	20.29
665.0	18.04
666.0	16.58
667.0	9.533
668.0	10.67
669.0	11.79
670.0	10.69
671.0	11.74
672.0	12.46
673.0	11.94
674.0	14.32
675.0	12.19
676.0	13.69
677.0	13.04
678.0	8.469
679.0	8.052
680.0	13.78
681.0	11.22
682.0	11.80
683.0	13.69
684.0	13.29
685.0	10.03
686.0	9.733
687.0	6.271
688.0	8.191
689.0	8.664
690.0	11.79
691.0	7.446
692.0	9.520
693.0	8.471
694.0	8.381
695.0	11.87
696.0	8.842
697.0	9.888
698.0	7.308
699.0	9.288
700.0	13.86
701.0	9.083
702.0	11.57
703.0	11.66
704.0	10.10
705.0	9.907
706.0	8.389
707.0	16.46
708.0	10.41
709.0	7.779
710.0	11.66
711.0	9.374
712.0	14.60
713.0	11.78
714.0	11.27
715.0	8.077
716.0	10.74
717.0	13.05
718.0	9.135
719.0	11.09
720.0	9.399
721.0	12.47
722.0	8.512
723.0	7.915
724.0	10.61
725.0	8.853
726.0	8.779
727.0	4.093
728.0	9.270
729.0	9.435
730.0	9.979
731.0	9.685
732.0	13.62
733.0	8.134
734.0	9.823
735.0	14.67
736.0	10.34
737.0	8.436
738.0	9.759
739.0	10.73
740.0	12.04
741.0	7.703
742.0	6.631
743.0	8.489
744.0	11.48
745.0	10.23
746.0	8.819
747.0	9.345
748.0	8.826
749.0	9.724
750.0	6.338
751.0	13.65
752.0	10.19
753.0	11.61
754.0	7.419
755.0	11.73
756.0	11.79
757.0	10.49
758.0	11.48
759.0	11.27
760.0	8.805
761.0	9.592
762.0	8.219
763.0	6.916
764.0	7.281
765.0	7.792
766.0	10.80
767.0	8.200
768.0	11.63
769.0	6.596
770.0	12.81
771.0	12.80
772.0	10.83
773.0	6.415
774.0	13.84
775.0	8.313
776.0	9.163
777.0	8.222
778.0	9.136
779.0	10.19
780.0	11.98

