Sample:	'wa-1(EM)
File name:	10.FDS
Run Date:	'16:57:12, 07/11/2024
Operator:	WXH
Comment:	'

Instrument
Model:	F-4600 FL Spectrophotometer
Serial Number:	3080-002
ROM Version:	5J24000 02

Instrument Parameters
Measurement type:	Wavelength scan
Scan mode:	Emission
Data mode:	Fluorescence
EX WL:	460.0 nm
EM  Start WL:	480.0 nm
EM  End WL:	780.0 nm
Scan speed:	1200 nm/min
Delay:	0.0 s
EX Slit:	2.5 nm
EM Slit:	2.5 nm
PMT Voltage:	600 V
Response:	Auto 
Corrected spectra:	Off
Shutter control:	On

Peak integration
Integration method:	Rectangular
Sensitivity:	1
Threshold:	1.000

Peaks
No.	Valley(nm)	Valley(Data)
1	511.6	403.4
2	513.2	388.6
3	519.4	422.1
4	522.6	394.6
5	530.2	352.9
6	536.6	357.9
7	541.2	337.4
8	545.8	323.0
9	551.4	303.3
10	556.4	264.5
11	558.2	261.6
12	562.0	255.4
13	568.4	209.7
14	572.0	180.1
15	580.6	160.6
16	583.4	148.2
17	587.8	117.9
18	591.6	111.5
19	593.2	111.7
20	597.8	101.0
21	606.0	78.01
22	611.2	74.56
23	616.0	69.68
24	622.0	55.62
25	623.8	46.74
26	625.4	45.63
27	629.6	45.01
28	633.0	41.86
29	635.8	33.34
30	641.0	29.02
31	643.0	28.67
32	648.2	23.87
33	652.0	25.10
34	654.0	22.66
35	656.6	16.03
36	661.2	16.39
37	665.6	16.34
38	668.8	12.02
39	671.4	13.25
40	675.0	10.33
41	680.8	9.024
42	684.2	10.83
43	685.8	10.26
44	689.2	8.206
45	692.6	8.442
46	697.2	9.438
47	699.6	7.516
48	704.8	6.592
49	708.2	6.106
50	710.0	4.045
51	713.8	5.917
52	720.0	5.652
53	725.2	5.874
54	729.0	4.491
55	731.6	5.509
56	735.0	4.219
57	736.4	5.760
58	741.2	4.623
59	744.4	4.936
60	746.8	5.277
61	748.6	6.262
62	751.2	6.432
63	754.0	4.283
64	758.4	4.445
65	760.0	3.087
66	762.4	3.612
67	764.6	4.844
68	766.4	4.229
69	768.2	5.463
70	770.6	5.366
71	773.4	4.824
72	778.2	6.705
73	780.0	6.001

Data Points
nm	Data
480.0	23.09
481.0	20.97
482.0	26.04
483.0	31.67
484.0	27.99
485.0	35.81
486.0	42.96
487.0	52.29
488.0	55.51
489.0	63.26
490.0	80.49
491.0	85.89
492.0	93.10
493.0	123.3
494.0	136.1
495.0	154.9
496.0	159.5
497.0	180.0
498.0	205.4
499.0	224.8
500.0	248.3
501.0	251.2
502.0	281.2
503.0	292.1
504.0	316.6
505.0	322.4
506.0	349.4
507.0	360.0
508.0	366.8
509.0	380.3
510.0	378.0
511.0	440.0
512.0	415.1
513.0	400.3
514.0	394.5
515.0	417.2
516.0	427.3
517.0	429.1
518.0	421.9
519.0	426.8
520.0	432.4
521.0	426.3
522.0	397.8
523.0	401.2
524.0	404.9
525.0	391.5
526.0	393.5
527.0	381.1
528.0	372.4
529.0	374.8
530.0	366.1
531.0	368.3
532.0	373.5
533.0	378.1
534.0	388.0
535.0	374.9
536.0	364.2
537.0	370.4
538.0	359.2
539.0	355.3
540.0	353.0
541.0	343.7
542.0	342.8
543.0	351.4
544.0	354.9
545.0	325.1
546.0	325.3
547.0	347.5
548.0	331.7
549.0	329.6
550.0	323.5
551.0	317.1
552.0	317.4
553.0	338.0
554.0	309.8
555.0	321.7
556.0	287.3
557.0	272.2
558.0	265.2
559.0	277.8
560.0	272.2
561.0	276.2
562.0	255.4
563.0	276.5
564.0	259.7
565.0	246.6
566.0	235.5
567.0	226.0
568.0	221.0
569.0	212.3
570.0	222.0
571.0	202.6
572.0	180.1
573.0	195.4
574.0	200.1
575.0	195.3
576.0	193.8
577.0	197.0
578.0	172.7
579.0	168.2
580.0	165.8
581.0	166.0
582.0	160.7
583.0	161.3
584.0	150.9
585.0	140.0
586.0	149.9
587.0	132.2
588.0	121.7
589.0	135.0
590.0	125.3
591.0	120.7
592.0	133.6
593.0	117.4
594.0	125.0
595.0	109.0
596.0	117.2
597.0	108.4
598.0	106.2
599.0	111.5
600.0	102.1
601.0	103.2
602.0	104.7
603.0	91.75
604.0	86.83
605.0	81.64
606.0	78.01
607.0	92.41
608.0	84.59
609.0	87.30
610.0	88.71
611.0	77.71
612.0	83.85
613.0	80.33
614.0	75.71
615.0	75.10
616.0	69.68
617.0	72.94
618.0	70.74
619.0	70.50
620.0	61.55
621.0	62.61
622.0	55.62
623.0	59.37
624.0	53.90
625.0	51.43
626.0	54.41
627.0	52.52
628.0	52.86
629.0	45.11
630.0	48.43
631.0	47.94
632.0	43.91
633.0	41.86
634.0	49.29
635.0	43.10
636.0	35.22
637.0	34.92
638.0	36.73
639.0	40.67
640.0	30.05
641.0	29.02
642.0	28.57
643.0	28.67
644.0	33.96
645.0	30.15
646.0	33.98
647.0	27.11
648.0	25.39
649.0	26.20
650.0	28.50
651.0	27.73
652.0	25.10
653.0	26.24
654.0	22.66
655.0	22.15
656.0	24.26
657.0	19.68
658.0	22.72
659.0	24.37
660.0	20.85
661.0	18.46
662.0	17.14
663.0	20.69
664.0	19.08
665.0	18.01
666.0	22.77
667.0	20.30
668.0	18.95
669.0	13.22
670.0	16.17
671.0	15.49
672.0	17.07
673.0	15.08
674.0	16.27
675.0	10.33
676.0	12.21
677.0	11.76
678.0	17.04
679.0	17.55
680.0	12.68
681.0	11.85
682.0	14.70
683.0	13.95
684.0	11.41
685.0	18.16
686.0	11.90
687.0	14.05
688.0	12.92
689.0	9.212
690.0	9.809
691.0	11.56
692.0	10.61
693.0	13.44
694.0	13.37
695.0	12.68
696.0	8.611
697.0	10.68
698.0	11.11
699.0	11.22
700.0	10.17
701.0	9.929
702.0	12.64
703.0	16.32
704.0	8.136
705.0	7.412
706.0	11.59
707.0	8.251
708.0	7.461
709.0	10.33
710.0	4.045
711.0	7.071
712.0	7.090
713.0	7.545
714.0	7.495
715.0	10.29
716.0	9.920
717.0	12.52
718.0	9.994
719.0	10.15
720.0	5.652
721.0	8.550
722.0	11.95
723.0	11.24
724.0	8.188
725.0	6.923
726.0	8.523
727.0	11.68
728.0	7.536
729.0	4.491
730.0	8.877
731.0	5.842
732.0	6.490
733.0	5.906
734.0	7.212
735.0	4.219
736.0	6.562
737.0	8.489
738.0	7.456
739.0	8.628
740.0	7.129
741.0	6.619
742.0	10.04
743.0	6.045
744.0	6.554
745.0	5.945
746.0	7.444
747.0	6.321
748.0	9.690
749.0	9.582
750.0	7.663
751.0	6.703
752.0	8.006
753.0	5.481
754.0	4.283
755.0	9.056
756.0	7.874
757.0	6.136
758.0	4.591
759.0	6.347
760.0	3.087
761.0	7.948
762.0	5.701
763.0	8.029
764.0	6.346
765.0	8.073
766.0	5.023
767.0	5.727
768.0	5.808
769.0	7.855
770.0	6.962
771.0	5.700
772.0	8.036
773.0	5.124
774.0	8.057
775.0	7.951
776.0	8.421
777.0	8.195
778.0	7.861
779.0	8.192
780.0	6.001

Sample:	'wa-2(EM)
File name:	10.FDS
Run Date:	'16:57:42, 07/11/2024
Operator:	WXH
Comment:	'

Instrument
Model:	F-4600 FL Spectrophotometer
Serial Number:	3080-002
ROM Version:	5J24000 02

Instrument Parameters
Measurement type:	Wavelength scan
Scan mode:	Emission
Data mode:	Fluorescence
EX WL:	460.0 nm
EM  Start WL:	480.0 nm
EM  End WL:	780.0 nm
Scan speed:	1200 nm/min
Delay:	0.0 s
EX Slit:	2.5 nm
EM Slit:	2.5 nm
PMT Voltage:	600 V
Response:	Auto 
Corrected spectra:	Off
Shutter control:	On

Peak integration
Integration method:	Rectangular
Sensitivity:	1
Threshold:	1.000

Peaks
No.	Valley(nm)	Valley(Data)
1	509.8	361.8
2	516.8	398.5
3	528.6	368.3
4	531.0	353.1
5	535.8	349.8
6	542.0	332.2
7	546.8	312.4
8	548.6	302.5
9	552.6	296.0
10	557.2	277.6
11	560.4	248.2
12	563.6	244.7
13	568.8	217.0
14	571.0	188.5
15	576.0	173.2
16	577.8	172.8
17	582.2	154.4
18	591.0	115.6
19	593.4	112.5
20	600.6	90.64
21	602.2	95.40
22	605.2	83.53
23	607.0	83.42
24	610.4	74.02
25	613.6	66.74
26	620.6	56.28
27	625.4	49.71
28	627.4	42.90
29	629.8	37.39
30	632.8	41.87
31	636.0	31.00
32	638.6	33.84
33	643.0	30.65
34	649.4	22.92
35	652.2	19.63
36	653.8	19.16
37	659.8	16.91
38	664.2	14.87
39	666.6	12.62
40	668.8	11.22
41	672.4	12.09
42	679.2	8.840
43	686.2	10.36
44	689.0	12.81
45	692.4	10.78
46	695.2	8.214
47	699.6	5.422
48	702.4	8.084
49	704.8	8.983
50	707.2	8.574
51	711.4	6.333
52	715.2	7.166
53	719.2	5.387
54	725.2	4.598
55	729.4	7.014
56	731.2	6.469
57	733.8	8.015
58	739.0	7.441
59	746.6	5.007
60	748.6	6.058
61	750.8	6.380
62	753.2	4.669
63	755.4	6.732
64	759.6	4.623
65	763.4	5.651
66	765.4	6.205
67	768.2	4.871
68	770.4	5.871
69	771.8	3.925
70	775.4	4.894
71	777.8	4.492

Data Points
nm	Data
480.0	22.09
481.0	24.62
482.0	28.86
483.0	27.81
484.0	29.05
485.0	36.93
486.0	41.44
487.0	54.70
488.0	47.71
489.0	68.89
490.0	77.82
491.0	83.38
492.0	96.03
493.0	114.5
494.0	119.1
495.0	144.2
496.0	169.1
497.0	181.9
498.0	192.2
499.0	210.9
500.0	226.6
501.0	260.4
502.0	281.2
503.0	306.6
504.0	334.5
505.0	343.5
506.0	336.4
507.0	369.8
508.0	373.1
509.0	390.5
510.0	367.0
511.0	383.2
512.0	409.3
513.0	426.7
514.0	418.7
515.0	408.8
516.0	430.6
517.0	407.7
518.0	406.6
519.0	426.9
520.0	426.0
521.0	430.2
522.0	412.3
523.0	421.3
524.0	405.5
525.0	390.8
526.0	384.3
527.0	391.5
528.0	370.6
529.0	392.2
530.0	380.7
531.0	353.1
532.0	378.2
533.0	361.2
534.0	390.3
535.0	377.4
536.0	354.6
537.0	354.8
538.0	360.6
539.0	344.0
540.0	338.1
541.0	337.7
542.0	332.2
543.0	339.3
544.0	352.3
545.0	350.0
546.0	340.4
547.0	319.8
548.0	338.0
549.0	317.7
550.0	326.2
551.0	309.4
552.0	313.1
553.0	315.5
554.0	312.7
555.0	311.5
556.0	297.6
557.0	278.2
558.0	298.8
559.0	292.4
560.0	270.1
561.0	266.7
562.0	280.1
563.0	249.4
564.0	255.2
565.0	238.5
566.0	233.2
567.0	229.6
568.0	217.7
569.0	220.0
570.0	229.3
571.0	188.5
572.0	220.8
573.0	194.7
574.0	189.5
575.0	186.7
576.0	173.2
577.0	178.2
578.0	184.6
579.0	167.1
580.0	176.4
581.0	161.1
582.0	160.4
583.0	162.3
584.0	167.0
585.0	151.2
586.0	144.3
587.0	142.5
588.0	133.6
589.0	133.0
590.0	127.9
591.0	115.6
592.0	132.1
593.0	114.2
594.0	125.4
595.0	115.5
596.0	115.2
597.0	109.1
598.0	108.6
599.0	100.8
600.0	101.2
601.0	100.7
602.0	95.81
603.0	98.55
604.0	93.80
605.0	87.34
606.0	91.68
607.0	83.42
608.0	86.82
609.0	81.81
610.0	81.76
611.0	81.57
612.0	79.73
613.0	84.39
614.0	70.75
615.0	74.36
616.0	71.43
617.0	64.46
618.0	70.22
619.0	66.55
620.0	59.20
621.0	64.97
622.0	68.58
623.0	57.90
624.0	55.28
625.0	56.26
626.0	53.49
627.0	46.46
628.0	51.90
629.0	43.36
630.0	39.11
631.0	46.87
632.0	42.84
633.0	44.98
634.0	40.87
635.0	35.73
636.0	31.00
637.0	34.17
638.0	38.90
639.0	38.08
640.0	43.37
641.0	37.93
642.0	36.11
643.0	30.65
644.0	32.40
645.0	34.46
646.0	26.34
647.0	27.20
648.0	26.31
649.0	24.78
650.0	25.10
651.0	26.52
652.0	22.26
653.0	23.95
654.0	21.46
655.0	21.76
656.0	27.81
657.0	21.91
658.0	24.51
659.0	22.07
660.0	19.35
661.0	20.53
662.0	19.60
663.0	16.64
664.0	16.06
665.0	18.13
666.0	18.17
667.0	16.45
668.0	14.61
669.0	16.43
670.0	15.76
671.0	16.81
672.0	14.24
673.0	15.43
674.0	12.74
675.0	17.24
676.0	17.09
677.0	19.14
678.0	12.12
679.0	9.138
680.0	9.531
681.0	12.20
682.0	13.39
683.0	11.84
684.0	13.40
685.0	11.70
686.0	11.38
687.0	12.34
688.0	16.02
689.0	12.81
690.0	14.39
691.0	12.09
692.0	12.51
693.0	14.65
694.0	11.10
695.0	10.02
696.0	10.22
697.0	13.44
698.0	9.523
699.0	10.62
700.0	11.25
701.0	11.22
702.0	9.108
703.0	10.72
704.0	10.16
705.0	9.698
706.0	10.49
707.0	9.075
708.0	11.27
709.0	15.21
710.0	10.27
711.0	9.879
712.0	8.691
713.0	11.27
714.0	7.796
715.0	7.596
716.0	7.879
717.0	8.768
718.0	8.663
719.0	5.630
720.0	7.523
721.0	7.573
722.0	7.900
723.0	9.019
724.0	8.214
725.0	5.725
726.0	7.696
727.0	7.572
728.0	11.34
729.0	8.266
730.0	12.06
731.0	8.229
732.0	8.497
733.0	9.744
734.0	8.304
735.0	9.711
736.0	7.925
737.0	10.83
738.0	9.066
739.0	7.441
740.0	10.09
741.0	10.74
742.0	12.86
743.0	14.28
744.0	9.667
745.0	9.348
746.0	7.902
747.0	6.846
748.0	8.289
749.0	8.975
750.0	10.48
751.0	7.977
752.0	8.420
753.0	7.119
754.0	8.249
755.0	9.922
756.0	13.11
757.0	8.662
758.0	7.375
759.0	6.675
760.0	7.526
761.0	10.57
762.0	8.637
763.0	6.683
764.0	7.596
765.0	7.168
766.0	9.366
767.0	7.010
768.0	5.980
769.0	6.637
770.0	6.577
771.0	7.390
772.0	4.220
773.0	8.791
774.0	6.433
775.0	9.240
776.0	9.354
777.0	8.783
778.0	6.489
779.0	5.421
780.0	9.770

Sample:	'wa-3(EM)
File name:	10.FDS
Run Date:	'16:58:12, 07/11/2024
Operator:	WXH
Comment:	'

Instrument
Model:	F-4600 FL Spectrophotometer
Serial Number:	3080-002
ROM Version:	5J24000 02

Instrument Parameters
Measurement type:	Wavelength scan
Scan mode:	Emission
Data mode:	Fluorescence
EX WL:	460.0 nm
EM  Start WL:	480.0 nm
EM  End WL:	780.0 nm
Scan speed:	1200 nm/min
Delay:	0.0 s
EX Slit:	2.5 nm
EM Slit:	2.5 nm
PMT Voltage:	600 V
Response:	Auto 
Corrected spectra:	Off
Shutter control:	On

Peak integration
Integration method:	Rectangular
Sensitivity:	1
Threshold:	1.000

Peaks
No.	Valley(nm)	Valley(Data)
1	514.2	390.1
2	518.2	392.8
3	521.8	404.0
4	524.0	383.5
5	526.6	382.2
6	530.8	355.3
7	532.8	343.0
8	534.2	344.7
9	537.4	337.4
10	539.6	338.8
11	545.4	311.1
12	548.2	310.2
13	557.4	270.1
14	558.8	258.9
15	560.4	253.9
16	565.8	217.0
17	568.6	208.2
18	572.0	197.2
19	576.6	175.6
20	583.0	132.8
21	586.4	128.1
22	589.8	122.3
23	592.8	117.1
24	597.0	107.2
25	601.4	93.62
26	609.0	72.58
27	611.8	69.71
28	614.4	66.61
29	615.8	64.10
30	619.4	58.05
31	624.2	50.48
32	628.0	43.16
33	632.4	32.16
34	635.2	32.39
35	637.8	34.23
36	644.8	23.88
37	646.6	24.71
38	649.2	26.75
39	651.6	24.02
40	655.4	19.32
41	661.8	15.52
42	667.2	14.87
43	670.0	13.53
44	672.6	13.61
45	679.2	10.93
46	683.4	12.20
47	686.6	8.279
48	689.6	10.13
49	691.4	7.076
50	695.8	8.274
51	698.8	7.943
52	703.6	4.683
53	707.8	9.276
54	710.6	7.256
55	712.4	5.445
56	717.6	3.969
57	719.0	3.371
58	723.4	5.147
59	727.2	6.692
60	733.4	6.495
61	735.8	5.112
62	738.8	4.919
63	745.6	5.143
64	747.0	4.447
65	750.4	4.321
66	752.6	4.111
67	755.2	3.706
68	758.2	5.510
69	761.8	6.023
70	765.8	4.977
71	770.6	3.152
72	774.8	5.442
73	780.0	7.995

Data Points
nm	Data
480.0	15.39
481.0	20.06
482.0	20.96
483.0	29.51
484.0	34.90
485.0	37.70
486.0	44.16
487.0	50.79
488.0	55.09
489.0	66.53
490.0	72.90
491.0	91.73
492.0	97.80
493.0	120.4
494.0	132.4
495.0	160.9
496.0	163.9
497.0	183.2
498.0	188.7
499.0	208.4
500.0	244.0
501.0	255.1
502.0	269.3
503.0	294.5
504.0	312.7
505.0	327.8
506.0	319.3
507.0	349.0
508.0	357.2
509.0	358.3
510.0	388.6
511.0	400.5
512.0	410.8
513.0	410.2
514.0	401.0
515.0	424.9
516.0	420.2
517.0	409.0
518.0	404.2
519.0	408.0
520.0	423.1
521.0	405.6
522.0	406.7
523.0	412.7
524.0	383.5
525.0	395.5
526.0	394.4
527.0	389.1
528.0	407.8
529.0	371.1
530.0	356.2
531.0	364.7
532.0	362.8
533.0	361.9
534.0	361.6
535.0	364.0
536.0	359.5
537.0	353.8
538.0	360.9
539.0	362.6
540.0	340.5
541.0	360.7
542.0	355.2
543.0	342.7
544.0	327.0
545.0	319.8
546.0	339.1
547.0	315.3
548.0	315.3
549.0	322.4
550.0	321.6
551.0	312.7
552.0	313.3
553.0	302.9
554.0	308.8
555.0	289.7
556.0	293.0
557.0	279.7
558.0	294.4
559.0	262.5
560.0	283.7
561.0	261.3
562.0	267.2
563.0	263.8
564.0	246.7
565.0	239.9
566.0	224.6
567.0	231.8
568.0	213.5
569.0	211.4
570.0	227.7
571.0	217.1
572.0	197.2
573.0	216.6
574.0	183.2
575.0	182.9
576.0	177.7
577.0	183.6
578.0	178.9
579.0	176.0
580.0	166.4
581.0	156.9
582.0	149.2
583.0	132.8
584.0	157.9
585.0	143.9
586.0	140.0
587.0	132.1
588.0	126.4
589.0	132.0
590.0	122.7
591.0	127.8
592.0	122.3
593.0	120.7
594.0	117.4
595.0	122.8
596.0	113.9
597.0	107.2
598.0	109.2
599.0	106.8
600.0	98.45
601.0	103.7
602.0	103.2
603.0	108.8
604.0	104.2
605.0	87.62
606.0	87.48
607.0	83.20
608.0	79.36
609.0	72.58
610.0	78.88
611.0	77.84
612.0	74.21
613.0	75.00
614.0	67.53
615.0	76.73
616.0	66.68
617.0	70.17
618.0	64.25
619.0	58.24
620.0	67.49
621.0	63.51
622.0	60.26
623.0	58.79
624.0	53.90
625.0	61.13
626.0	50.06
627.0	51.89
628.0	43.16
629.0	50.92
630.0	48.87
631.0	45.94
632.0	37.96
633.0	43.58
634.0	43.26
635.0	37.38
636.0	45.95
637.0	39.97
638.0	39.10
639.0	37.77
640.0	36.58
641.0	37.31
642.0	34.61
643.0	32.16
644.0	27.53
645.0	25.83
646.0	30.90
647.0	26.41
648.0	35.03
649.0	28.75
650.0	28.59
651.0	32.06
652.0	27.78
653.0	28.36
654.0	26.62
655.0	21.41
656.0	23.27
657.0	21.87
658.0	26.00
659.0	23.58
660.0	23.10
661.0	20.44
662.0	18.18
663.0	16.25
664.0	17.76
665.0	22.93
666.0	16.07
667.0	17.98
668.0	19.38
669.0	16.38
670.0	13.53
671.0	14.70
672.0	18.67
673.0	14.44
674.0	18.20
675.0	13.99
676.0	14.77
677.0	15.20
678.0	14.21
679.0	12.02
680.0	11.26
681.0	17.34
682.0	14.85
683.0	15.75
684.0	14.60
685.0	15.22
686.0	9.268
687.0	12.94
688.0	12.66
689.0	11.98
690.0	14.01
691.0	9.413
692.0	10.33
693.0	12.41
694.0	10.00
695.0	9.078
696.0	11.00
697.0	11.88
698.0	8.898
699.0	9.570
700.0	10.27
701.0	11.58
702.0	9.407
703.0	7.216
704.0	7.644
705.0	9.867
706.0	7.972
707.0	12.48
708.0	9.306
709.0	14.56
710.0	11.23
711.0	7.965
712.0	9.144
713.0	11.16
714.0	8.947
715.0	6.738
716.0	8.635
717.0	6.450
718.0	7.045
719.0	3.371
720.0	10.57
721.0	9.336
722.0	9.337
723.0	8.132
724.0	7.497
725.0	11.15
726.0	9.069
727.0	7.913
728.0	11.30
729.0	9.361
730.0	11.55
731.0	10.18
732.0	8.342
733.0	7.361
734.0	10.24
735.0	8.255
736.0	6.005
737.0	7.649
738.0	6.112
739.0	4.921
740.0	7.678
741.0	8.135
742.0	6.998
743.0	8.515
744.0	8.397
745.0	7.614
746.0	8.500
747.0	4.447
748.0	5.982
749.0	10.64
750.0	6.162
751.0	5.642
752.0	9.136
753.0	6.971
754.0	9.035
755.0	4.770
756.0	8.236
757.0	8.811
758.0	6.926
759.0	8.503
760.0	9.290
761.0	6.835
762.0	6.698
763.0	7.579
764.0	7.327
765.0	6.869
766.0	7.749
767.0	8.715
768.0	12.87
769.0	7.113
770.0	4.979
771.0	5.995
772.0	7.090
773.0	8.900
774.0	12.64
775.0	6.993
776.0	6.916
777.0	11.18
778.0	8.520
779.0	9.005
780.0	7.995

Sample:	'wa-4(EM)
File name:	10.FDS
Run Date:	'16:58:42, 07/11/2024
Operator:	WXH
Comment:	'

Instrument
Model:	F-4600 FL Spectrophotometer
Serial Number:	3080-002
ROM Version:	5J24000 02

Instrument Parameters
Measurement type:	Wavelength scan
Scan mode:	Emission
Data mode:	Fluorescence
EX WL:	460.0 nm
EM  Start WL:	480.0 nm
EM  End WL:	780.0 nm
Scan speed:	1200 nm/min
Delay:	0.0 s
EX Slit:	2.5 nm
EM Slit:	2.5 nm
PMT Voltage:	600 V
Response:	Auto 
Corrected spectra:	Off
Shutter control:	On

Peak integration
Integration method:	Rectangular
Sensitivity:	1
Threshold:	1.000

Peaks
No.	Valley(nm)	Valley(Data)
1	507.6	347.7
2	512.2	389.3
3	515.2	391.2
4	518.4	397.5
5	521.2	401.7
6	527.8	365.1
7	531.8	338.1
8	534.0	344.6
9	535.6	344.0
10	540.0	324.3
11	546.8	305.4
12	550.4	297.1
13	555.2	288.6
14	560.8	243.6
15	568.4	213.2
16	574.6	184.4
17	578.8	141.9
18	584.8	132.7
19	589.6	119.5
20	593.0	109.5
21	596.2	104.8
22	598.2	91.25
23	601.2	96.36
24	607.2	77.97
25	612.2	66.44
26	617.6	50.72
27	623.0	49.41
28	625.2	40.22
29	627.4	44.41
30	633.0	34.08
31	636.2	33.64
32	638.8	26.87
33	641.0	27.56
34	643.2	23.76
35	647.0	24.15
36	653.4	23.46
37	655.4	24.94
38	658.2	17.40
39	662.2	14.92
40	663.6	15.72
41	666.6	13.63
42	670.8	14.40
43	672.8	13.23
44	677.6	9.621
45	679.6	9.824
46	685.0	7.016
47	689.0	7.778
48	691.8	7.646
49	697.2	8.339
50	699.2	6.651
51	702.6	5.949
52	706.6	5.643
53	712.0	8.140
54	714.8	5.050
55	715.8	6.724
56	719.8	6.241
57	725.8	3.654
58	730.6	6.435
59	734.8	6.191
60	737.6	4.813
61	742.0	5.396
62	747.2	5.161
63	749.6	4.369
64	753.0	6.219
65	755.2	5.470
66	762.0	4.885
67	764.0	4.462
68	769.0	5.140
69	772.0	6.330
70	774.8	5.754

Data Points
nm	Data
480.0	15.97
481.0	19.87
482.0	20.40
483.0	26.39
484.0	30.48
485.0	39.29
486.0	37.30
487.0	48.66
488.0	58.82
489.0	61.79
490.0	72.71
491.0	73.85
492.0	96.88
493.0	110.1
494.0	126.8
495.0	159.4
496.0	160.7
497.0	177.0
498.0	199.5
499.0	216.3
500.0	225.1
501.0	243.5
502.0	244.7
503.0	287.2
504.0	309.3
505.0	324.5
506.0	331.9
507.0	355.2
508.0	350.3
509.0	358.6
510.0	366.2
511.0	399.2
512.0	394.7
513.0	391.1
514.0	413.5
515.0	392.9
516.0	430.0
517.0	410.2
518.0	418.8
519.0	410.7
520.0	413.1
521.0	403.5
522.0	411.0
523.0	414.5
524.0	415.3
525.0	403.5
526.0	398.6
527.0	386.5
528.0	389.2
529.0	393.2
530.0	385.6
531.0	367.2
532.0	343.6
533.0	349.9
534.0	344.6
535.0	360.6
536.0	355.2
537.0	370.2
538.0	360.4
539.0	352.7
540.0	324.3
541.0	341.0
542.0	347.9
543.0	343.8
544.0	341.6
545.0	329.2
546.0	309.5
547.0	325.3
548.0	324.0
549.0	312.1
550.0	317.1
551.0	299.6
552.0	313.6
553.0	303.5
554.0	296.6
555.0	298.8
556.0	305.9
557.0	306.4
558.0	270.9
559.0	286.3
560.0	284.0
561.0	248.4
562.0	246.4
563.0	237.2
564.0	239.2
565.0	239.3
566.0	220.2
567.0	219.8
568.0	224.6
569.0	226.5
570.0	224.4
571.0	217.8
572.0	208.7
573.0	202.6
574.0	187.9
575.0	198.7
576.0	188.8
577.0	182.6
578.0	172.5
579.0	147.3
580.0	154.8
581.0	151.5
582.0	171.0
583.0	161.7
584.0	147.3
585.0	139.8
586.0	143.8
587.0	149.1
588.0	138.5
589.0	131.4
590.0	132.6
591.0	136.5
592.0	119.4
593.0	109.5
594.0	117.4
595.0	112.2
596.0	108.1
597.0	102.2
598.0	96.75
599.0	94.71
600.0	105.3
601.0	97.19
602.0	98.70
603.0	97.23
604.0	93.76
605.0	102.7
606.0	96.84
607.0	84.26
608.0	89.00
609.0	82.41
610.0	77.01
611.0	73.17
612.0	68.47
613.0	79.16
614.0	75.73
615.0	73.32
616.0	64.41
617.0	64.37
618.0	55.33
619.0	57.92
620.0	68.65
621.0	65.69
622.0	54.67
623.0	49.41
624.0	51.92
625.0	42.70
626.0	51.80
627.0	54.37
628.0	51.55
629.0	49.83
630.0	50.35
631.0	40.68
632.0	45.39
633.0	34.08
634.0	37.24
635.0	38.53
636.0	35.54
637.0	35.38
638.0	30.31
639.0	31.17
640.0	31.51
641.0	27.56
642.0	29.02
643.0	24.06
644.0	28.24
645.0	29.15
646.0	30.36
647.0	24.15
648.0	31.79
649.0	30.80
650.0	28.41
651.0	27.05
652.0	25.96
653.0	25.73
654.0	24.92
655.0	26.83
656.0	25.91
657.0	22.74
658.0	18.75
659.0	20.40
660.0	24.17
661.0	17.46
662.0	16.88
663.0	19.88
664.0	17.49
665.0	22.27
666.0	14.97
667.0	16.87
668.0	19.29
669.0	20.56
670.0	16.55
671.0	14.51
672.0	18.23
673.0	13.35
674.0	15.29
675.0	15.33
676.0	15.68
677.0	11.92
678.0	13.19
679.0	14.37
680.0	11.52
681.0	14.19
682.0	10.22
683.0	10.33
684.0	9.759
685.0	7.016
686.0	9.292
687.0	12.30
688.0	11.30
689.0	7.778
690.0	11.57
691.0	11.05
692.0	7.739
693.0	11.55
694.0	10.76
695.0	9.581
696.0	9.243
697.0	8.752
698.0	9.794
699.0	9.081
700.0	9.233
701.0	8.751
702.0	6.672
703.0	6.050
704.0	11.13
705.0	11.69
706.0	6.218
707.0	7.812
708.0	6.734
709.0	7.923
710.0	12.98
711.0	9.521
712.0	8.140
713.0	12.35
714.0	9.913
715.0	8.306
716.0	7.171
717.0	10.78
718.0	8.549
719.0	9.592
720.0	6.290
721.0	12.45
722.0	10.49
723.0	7.438
724.0	5.112
725.0	5.774
726.0	3.783
727.0	9.602
728.0	9.280
729.0	7.814
730.0	7.968
731.0	8.435
732.0	6.492
733.0	7.123
734.0	9.440
735.0	6.956
736.0	6.642
737.0	6.142
738.0	6.390
739.0	13.07
740.0	9.381
741.0	7.951
742.0	5.396
743.0	7.434
744.0	8.263
745.0	9.432
746.0	11.41
747.0	6.474
748.0	5.253
749.0	6.127
750.0	6.033
751.0	7.481
752.0	9.356
753.0	6.219
754.0	7.833
755.0	6.004
756.0	5.926
757.0	6.592
758.0	8.678
759.0	8.710
760.0	10.21
761.0	5.202
762.0	4.885
763.0	7.870
764.0	4.462
765.0	9.714
766.0	7.513
767.0	8.953
768.0	8.898
769.0	5.140
770.0	9.541
771.0	7.537
772.0	6.330
773.0	6.938
774.0	8.372
775.0	5.774
776.0	7.511
777.0	8.471
778.0	8.685
779.0	3.497
780.0	8.511

Sample:	'wa-5(EM)
File name:	10.FDS
Run Date:	'16:59:12, 07/11/2024
Operator:	WXH
Comment:	'

Instrument
Model:	F-4600 FL Spectrophotometer
Serial Number:	3080-002
ROM Version:	5J24000 02

Instrument Parameters
Measurement type:	Wavelength scan
Scan mode:	Emission
Data mode:	Fluorescence
EX WL:	460.0 nm
EM  Start WL:	480.0 nm
EM  End WL:	780.0 nm
Scan speed:	1200 nm/min
Delay:	0.0 s
EX Slit:	2.5 nm
EM Slit:	2.5 nm
PMT Voltage:	600 V
Response:	Auto 
Corrected spectra:	Off
Shutter control:	On

Peak integration
Integration method:	Rectangular
Sensitivity:	1
Threshold:	1.000

Peaks
No.	Valley(nm)	Valley(Data)
1	513.6	373.3
2	516.0	377.6
3	519.8	381.4
4	530.2	351.8
5	532.4	360.0
6	535.2	321.8
7	538.8	325.1
8	544.2	306.0
9	546.4	293.2
10	548.2	294.8
11	552.2	288.1
12	554.4	282.3
13	558.0	264.4
14	562.8	216.8
15	566.0	220.9
16	568.0	204.5
17	573.8	182.9
18	579.0	158.9
19	584.2	136.5
20	594.8	98.64
21	597.2	102.3
22	600.4	81.65
23	605.6	82.78
24	607.6	77.27
25	611.2	73.94
26	617.4	55.97
27	622.0	52.37
28	623.4	50.24
29	625.6	49.64
30	629.0	42.52
31	632.2	36.26
32	636.2	31.83
33	637.8	28.64
34	642.0	24.66
35	644.8	23.65
36	647.6	22.60
37	651.0	18.49
38	655.4	19.44
39	659.2	17.42
40	664.2	17.75
41	666.8	15.18
42	670.6	16.55
43	671.6	13.33
44	675.6	12.86
45	678.8	10.76
46	683.8	9.831
47	689.0	6.651
48	692.6	6.667
49	696.6	6.651
50	700.4	9.281
51	703.2	10.16
52	705.2	7.562
53	706.8	6.651
54	709.6	5.798
55	712.2	8.411
56	713.8	4.263
57	724.2	6.210
58	727.8	7.263
59	730.2	5.812
60	732.2	6.292
61	735.4	5.592
62	737.0	5.639
63	741.4	6.300
64	742.8	5.473
65	745.4	4.377
66	749.2	6.124
67	752.0	7.093
68	755.6	8.421
69	757.2	6.838
70	761.0	5.075
71	763.2	3.741
72	768.2	4.370
73	769.8	5.143
74	773.2	3.796
75	777.0	4.484

Data Points
nm	Data
480.0	20.47
481.0	26.80
482.0	28.18
483.0	28.08
484.0	31.82
485.0	34.87
486.0	42.54
487.0	44.07
488.0	56.78
489.0	64.16
490.0	72.60
491.0	93.88
492.0	98.18
493.0	124.1
494.0	135.8
495.0	153.3
496.0	158.6
497.0	168.8
498.0	191.2
499.0	208.5
500.0	239.6
501.0	242.5
502.0	274.2
503.0	273.5
504.0	291.9
505.0	316.1
506.0	338.1
507.0	339.5
508.0	343.0
509.0	374.9
510.0	380.1
511.0	398.9
512.0	405.3
513.0	386.0
514.0	383.3
515.0	399.0
516.0	377.6
517.0	406.0
518.0	404.4
519.0	397.9
520.0	390.7
521.0	388.8
522.0	404.5
523.0	413.9
524.0	414.1
525.0	395.6
526.0	400.9
527.0	396.3
528.0	394.2
529.0	371.2
530.0	361.0
531.0	355.5
532.0	369.3
533.0	371.1
534.0	371.0
535.0	331.8
536.0	341.0
537.0	352.0
538.0	341.6
539.0	332.8
540.0	358.3
541.0	338.0
542.0	339.2
543.0	329.0
544.0	320.2
545.0	312.9
546.0	304.8
547.0	299.3
548.0	298.9
549.0	314.9
550.0	315.6
551.0	316.1
552.0	291.8
553.0	290.2
554.0	286.9
555.0	285.7
556.0	289.9
557.0	278.5
558.0	264.4
559.0	275.0
560.0	273.1
561.0	259.4
562.0	242.9
563.0	226.5
564.0	259.2
565.0	240.4
566.0	220.9
567.0	225.7
568.0	204.5
569.0	233.8
570.0	218.5
571.0	205.9
572.0	196.0
573.0	194.4
574.0	189.4
575.0	196.9
576.0	169.5
577.0	173.7
578.0	161.8
579.0	158.9
580.0	168.4
581.0	146.8
582.0	147.8
583.0	141.4
584.0	139.7
585.0	153.7
586.0	157.3
587.0	141.5
588.0	139.2
589.0	130.7
590.0	123.9
591.0	126.1
592.0	122.4
593.0	120.2
594.0	113.7
595.0	101.1
596.0	111.5
597.0	102.5
598.0	110.7
599.0	99.91
600.0	87.09
601.0	89.53
602.0	94.98
603.0	106.6
604.0	89.29
605.0	94.79
606.0	92.61
607.0	87.77
608.0	85.11
609.0	86.94
610.0	79.43
611.0	74.02
612.0	76.63
613.0	74.30
614.0	76.43
615.0	66.17
616.0	67.72
617.0	63.02
618.0	62.44
619.0	62.49
620.0	63.09
621.0	57.53
622.0	52.37
623.0	56.44
624.0	55.14
625.0	55.91
626.0	51.02
627.0	50.47
628.0	53.00
629.0	42.52
630.0	52.52
631.0	43.24
632.0	40.65
633.0	45.06
634.0	44.45
635.0	42.87
636.0	33.72
637.0	33.83
638.0	29.44
639.0	38.58
640.0	36.25
641.0	32.48
642.0	24.66
643.0	31.47
644.0	24.94
645.0	27.68
646.0	30.33
647.0	31.39
648.0	24.60
649.0	29.06
650.0	23.22
651.0	18.49
652.0	19.49
653.0	26.40
654.0	26.84
655.0	21.65
656.0	21.67
657.0	24.59
658.0	27.16
659.0	19.37
660.0	19.11
661.0	28.65
662.0	19.45
663.0	21.05
664.0	19.94
665.0	20.66
666.0	21.23
667.0	17.78
668.0	21.13
669.0	20.12
670.0	19.13
671.0	18.55
672.0	16.71
673.0	16.67
674.0	14.00
675.0	14.89
676.0	16.57
677.0	15.75
678.0	15.49
679.0	14.51
680.0	15.31
681.0	16.05
682.0	15.56
683.0	13.47
684.0	14.77
685.0	18.18
686.0	15.73
687.0	10.49
688.0	8.153
689.0	6.651
690.0	13.21
691.0	13.73
692.0	9.352
693.0	10.12
694.0	11.84
695.0	10.51
696.0	9.413
697.0	7.685
698.0	8.702
699.0	9.872
700.0	11.06
701.0	11.73
702.0	12.02
703.0	10.56
704.0	12.59
705.0	9.525
706.0	12.46
707.0	10.38
708.0	11.41
709.0	9.727
710.0	5.863
711.0	11.37
712.0	10.88
713.0	12.78
714.0	7.117
715.0	8.689
716.0	8.060
717.0	9.780
718.0	13.12
719.0	11.22
720.0	11.17
721.0	10.02
722.0	10.64
723.0	7.413
724.0	6.632
725.0	7.763
726.0	12.38
727.0	9.478
728.0	8.510
729.0	10.27
730.0	5.942
731.0	13.86
732.0	7.893
733.0	10.51
734.0	7.420
735.0	8.276
736.0	10.23
737.0	5.639
738.0	8.656
739.0	8.623
740.0	9.711
741.0	6.366
742.0	10.19
743.0	6.418
744.0	7.871
745.0	6.394
746.0	8.776
747.0	9.481
748.0	6.250
749.0	6.166
750.0	7.299
751.0	8.377
752.0	7.093
753.0	11.21
754.0	9.463
755.0	9.871
756.0	10.22
757.0	8.637
758.0	11.59
759.0	7.848
760.0	5.914
761.0	5.075
762.0	9.310
763.0	5.966
764.0	4.501
765.0	7.723
766.0	4.953
767.0	8.056
768.0	5.984
769.0	6.081
770.0	6.062
771.0	6.079
772.0	8.754
773.0	4.385
774.0	5.759
775.0	8.747
776.0	8.026
777.0	4.484
778.0	7.106
779.0	8.641
780.0	8.514

Sample:	'wa-6(EM)
File name:	10.FDS
Run Date:	'16:59:43, 07/11/2024
Operator:	WXH
Comment:	'

Instrument
Model:	F-4600 FL Spectrophotometer
Serial Number:	3080-002
ROM Version:	5J24000 02

Instrument Parameters
Measurement type:	Wavelength scan
Scan mode:	Emission
Data mode:	Fluorescence
EX WL:	460.0 nm
EM  Start WL:	480.0 nm
EM  End WL:	780.0 nm
Scan speed:	1200 nm/min
Delay:	0.0 s
EX Slit:	2.5 nm
EM Slit:	2.5 nm
PMT Voltage:	600 V
Response:	Auto 
Corrected spectra:	Off
Shutter control:	On

Peak integration
Integration method:	Rectangular
Sensitivity:	1
Threshold:	1.000

Peaks
No.	Valley(nm)	Valley(Data)
1	487.8	47.15
2	501.0	238.7
3	509.2	334.9
4	513.8	380.1
5	518.0	390.1
6	521.2	385.1
7	524.0	375.4
8	527.6	352.7
9	530.4	356.3
10	531.8	360.3
11	536.6	334.8
12	541.6	320.7
13	545.4	309.8
14	550.0	298.0
15	553.4	284.8
16	555.4	272.6
17	558.4	264.9
18	560.0	253.2
19	564.2	225.3
20	582.0	145.1
21	584.8	141.5
22	589.0	125.8
23	591.2	114.9
24	593.4	107.0
25	597.2	99.55
26	601.2	93.47
27	609.0	65.47
28	617.0	59.02
29	622.0	49.09
30	627.4	39.29
31	638.0	32.76
32	640.2	23.76
33	641.8	26.55
34	645.4	24.33
35	649.0	21.51
36	654.8	20.45
37	657.0	19.13
38	661.6	15.21
39	665.6	15.91
40	668.8	11.95
41	671.4	14.09
42	674.0	12.73
43	677.0	11.00
44	679.6	9.183
45	683.2	11.06
46	687.8	9.296
47	689.8	10.28
48	691.4	8.687
49	697.0	5.783
50	701.6	6.055
51	705.0	7.271
52	707.2	6.082
53	708.8	6.395
54	711.8	4.573
55	715.6	4.868
56	719.2	5.822
57	721.6	4.715
58	723.6	8.126
59	727.0	4.920
60	732.4	6.168
61	735.8	7.869
62	738.4	6.225
63	745.2	4.595
64	748.6	7.016
65	750.6	6.910
66	753.2	5.121
67	757.6	4.461
68	759.6	6.347
69	762.2	5.230
70	764.4	5.058
71	768.0	4.993
72	769.6	5.260
73	776.2	4.959
74	780.0	7.048

Data Points
nm	Data
480.0	20.04
481.0	22.59
482.0	23.96
483.0	35.76
484.0	35.27
485.0	35.51
486.0	53.85
487.0	52.99
488.0	59.13
489.0	63.61
490.0	67.86
491.0	89.62
492.0	99.69
493.0	100.4
494.0	130.2
495.0	130.5
496.0	157.0
497.0	191.5
498.0	188.2
499.0	208.8
500.0	253.7
501.0	238.7
502.0	269.3
503.0	277.6
504.0	307.9
505.0	323.5
506.0	346.7
507.0	355.8
508.0	353.1
509.0	345.2
510.0	345.4
511.0	368.5
512.0	376.0
513.0	411.1
514.0	391.1
515.0	388.6
516.0	404.0
517.0	418.2
518.0	390.1
519.0	401.6
520.0	404.2
521.0	392.6
522.0	390.3
523.0	404.2
524.0	375.4
525.0	379.8
526.0	378.1
527.0	372.7
528.0	359.8
529.0	378.3
530.0	362.3
531.0	373.4
532.0	362.0
533.0	375.1
534.0	362.6
535.0	341.8
536.0	345.3
537.0	343.7
538.0	363.6
539.0	349.2
540.0	342.3
541.0	340.7
542.0	327.9
543.0	336.5
544.0	344.6
545.0	323.0
546.0	328.1
547.0	325.5
548.0	323.3
549.0	321.0
550.0	298.0
551.0	319.7
552.0	299.3
553.0	296.1
554.0	297.6
555.0	288.6
556.0	278.1
557.0	296.4
558.0	269.5
559.0	282.4
560.0	253.2
561.0	263.5
562.0	261.6
563.0	230.8
564.0	228.7
565.0	231.2
566.0	233.3
567.0	218.9
568.0	216.9
569.0	218.5
570.0	205.9
571.0	208.0
572.0	198.6
573.0	197.7
574.0	184.6
575.0	181.7
576.0	182.6
577.0	167.7
578.0	161.6
579.0	156.8
580.0	147.4
581.0	160.0
582.0	145.1
583.0	157.6
584.0	142.9
585.0	143.9
586.0	143.3
587.0	137.2
588.0	127.4
589.0	125.8
590.0	126.1
591.0	116.2
592.0	117.9
593.0	115.2
594.0	115.1
595.0	110.0
596.0	109.0
597.0	110.1
598.0	105.5
599.0	112.8
600.0	101.5
601.0	97.22
602.0	96.18
603.0	98.79
604.0	96.29
605.0	88.56
606.0	85.15
607.0	85.18
608.0	83.17
609.0	65.47
610.0	74.97
611.0	86.84
612.0	80.69
613.0	77.39
614.0	69.95
615.0	71.41
616.0	64.26
617.0	59.02
618.0	65.06
619.0	60.96
620.0	59.21
621.0	55.54
622.0	49.09
623.0	54.85
624.0	50.85
625.0	49.96
626.0	45.57
627.0	45.71
628.0	49.45
629.0	49.39
630.0	52.20
631.0	48.04
632.0	41.61
633.0	46.84
634.0	41.34
635.0	41.40
636.0	44.61
637.0	40.04
638.0	32.76
639.0	39.62
640.0	29.00
641.0	34.16
642.0	27.75
643.0	36.19
644.0	29.61
645.0	29.50
646.0	28.48
647.0	28.27
648.0	31.16
649.0	21.51
650.0	24.47
651.0	27.22
652.0	26.70
653.0	25.87
654.0	25.12
655.0	21.97
656.0	26.04
657.0	19.13
658.0	22.77
659.0	17.94
660.0	19.48
661.0	17.16
662.0	20.33
663.0	18.57
664.0	18.25
665.0	20.46
666.0	17.48
667.0	15.90
668.0	15.89
669.0	13.23
670.0	16.99
671.0	20.29
672.0	17.42
673.0	16.62
674.0	12.73
675.0	12.37
676.0	15.18
677.0	11.00
678.0	16.59
679.0	11.93
680.0	12.23
681.0	10.78
682.0	16.35
683.0	12.81
684.0	13.27
685.0	12.98
686.0	10.14
687.0	13.60
688.0	13.09
689.0	10.55
690.0	12.40
691.0	10.96
692.0	9.689
693.0	11.83
694.0	9.226
695.0	9.166
696.0	9.136
697.0	5.783
698.0	14.16
699.0	12.08
700.0	14.48
701.0	11.40
702.0	8.135
703.0	10.85
704.0	10.82
705.0	7.271
706.0	9.430
707.0	8.147
708.0	7.629
709.0	6.629
710.0	9.379
711.0	11.32
712.0	6.257
713.0	12.26
714.0	10.85
715.0	9.825
716.0	6.981
717.0	12.42
718.0	9.046
719.0	7.960
720.0	7.429
721.0	6.900
722.0	9.218
723.0	9.428
724.0	10.45
725.0	7.509
726.0	6.967
727.0	4.920
728.0	6.365
729.0	6.696
730.0	9.667
731.0	12.62
732.0	6.477
733.0	6.581
734.0	7.244
735.0	10.80
736.0	8.151
737.0	9.398
738.0	6.678
739.0	7.510
740.0	7.951
741.0	7.256
742.0	10.38
743.0	8.073
744.0	7.946
745.0	7.211
746.0	7.594
747.0	7.230
748.0	10.77
749.0	8.396
750.0	8.352
751.0	8.090
752.0	11.04
753.0	7.704
754.0	8.247
755.0	7.293
756.0	9.613
757.0	9.142
758.0	7.550
759.0	7.396
760.0	7.560
761.0	8.411
762.0	6.870
763.0	9.338
764.0	5.884
765.0	9.057
766.0	10.33
767.0	7.849
768.0	4.993
769.0	7.693
770.0	6.318
771.0	7.268
772.0	9.389
773.0	6.749
774.0	7.967
775.0	9.446
776.0	6.961
777.0	6.074
778.0	7.029
779.0	6.536
780.0	7.048

Sample:	'wa-7(EM)
File name:	10.FDS
Run Date:	'17:00:13, 07/11/2024
Operator:	WXH
Comment:	'

Instrument
Model:	F-4600 FL Spectrophotometer
Serial Number:	3080-002
ROM Version:	5J24000 02

Instrument Parameters
Measurement type:	Wavelength scan
Scan mode:	Emission
Data mode:	Fluorescence
EX WL:	460.0 nm
EM  Start WL:	480.0 nm
EM  End WL:	780.0 nm
Scan speed:	1200 nm/min
Delay:	0.0 s
EX Slit:	2.5 nm
EM Slit:	2.5 nm
PMT Voltage:	600 V
Response:	Auto 
Corrected spectra:	Off
Shutter control:	On

Peak integration
Integration method:	Rectangular
Sensitivity:	1
Threshold:	1.000

Peaks
No.	Valley(nm)	Valley(Data)
1	486.2	37.90
2	503.4	272.3
3	510.6	364.4
4	519.4	379.9
5	522.8	369.6
6	528.6	361.1
7	530.2	350.6
8	532.6	356.1
9	534.4	338.5
10	536.6	336.6
11	538.6	334.1
12	540.6	320.7
13	542.6	321.4
14	546.8	303.9
15	551.4	287.6
16	556.2	264.4
17	558.8	261.7
18	564.6	225.0
19	576.0	178.0
20	582.8	137.8
21	585.6	122.9
22	588.8	114.6
23	591.4	111.9
24	593.6	108.8
25	597.4	98.49
26	601.0	89.41
27	607.4	73.34
28	611.0	72.42
29	611.8	72.77
30	614.6	66.43
31	618.6	59.24
32	621.8	48.97
33	627.0	42.91
34	630.4	36.77
35	632.6	37.80
36	635.2	33.58
37	638.0	34.92
38	642.0	24.57
39	645.8	24.62
40	647.2	20.88
41	650.6	20.97
42	652.0	22.31
43	653.6	21.45
44	658.0	18.38
45	659.6	16.50
46	661.4	18.17
47	667.8	14.58
48	671.0	12.82
49	675.6	9.879
50	680.2	12.37
51	683.8	9.886
52	690.8	7.875
53	694.0	9.922
54	695.6	9.208
55	696.6	8.387
56	701.0	9.766
57	703.2	6.977
58	706.6	7.461
59	710.6	7.176
60	712.2	7.278
61	715.0	7.858
62	716.6	6.308
63	723.4	3.116
64	729.8	4.669
65	731.8	5.029
66	735.4	4.170
67	740.0	5.528
68	742.0	4.471
69	744.8	6.762
70	748.0	5.364
71	751.2	4.668
72	753.0	6.895
73	756.8	4.064
74	760.6	3.784
75	767.4	3.569
76	771.8	4.894
77	780.0	8.095

Data Points
nm	Data
480.0	32.49
481.0	22.92
482.0	22.02
483.0	27.91
484.0	34.24
485.0	39.00
486.0	42.83
487.0	45.16
488.0	59.01
489.0	66.65
490.0	77.80
491.0	83.08
492.0	99.98
493.0	107.8
494.0	139.1
495.0	135.5
496.0	159.1
497.0	173.5
498.0	201.8
499.0	211.5
500.0	227.3
501.0	252.5
502.0	283.0
503.0	282.2
504.0	282.5
505.0	302.2
506.0	336.2
507.0	334.5
508.0	347.4
509.0	382.7
510.0	372.3
511.0	366.7
512.0	377.0
513.0	377.4
514.0	382.0
515.0	407.3
516.0	411.6
517.0	406.0
518.0	409.2
519.0	386.7
520.0	417.4
521.0	412.0
522.0	413.3
523.0	371.3
524.0	406.3
525.0	396.4
526.0	382.9
527.0	384.9
528.0	382.4
529.0	381.6
530.0	352.4
531.0	369.9
532.0	366.7
533.0	372.0
534.0	343.8
535.0	358.9
536.0	345.1
537.0	354.1
538.0	349.3
539.0	343.3
540.0	328.1
541.0	339.8
542.0	339.0
543.0	334.2
544.0	317.7
545.0	308.2
546.0	318.9
547.0	321.4
548.0	309.3
549.0	313.1
550.0	327.6
551.0	298.1
552.0	299.4
553.0	314.1
554.0	304.6
555.0	284.6
556.0	279.7
557.0	293.1
558.0	283.3
559.0	269.5
560.0	274.1
561.0	263.0
562.0	251.8
563.0	240.5
564.0	239.0
565.0	228.9
566.0	227.8
567.0	226.9
568.0	218.6
569.0	221.2
570.0	212.6
571.0	206.5
572.0	195.4
573.0	192.1
574.0	188.5
575.0	184.8
576.0	178.0
577.0	189.6
578.0	171.4
579.0	163.2
580.0	169.9
581.0	153.2
582.0	150.5
583.0	144.6
584.0	141.2
585.0	140.4
586.0	125.9
587.0	133.7
588.0	126.0
589.0	119.1
590.0	123.8
591.0	119.4
592.0	119.7
593.0	123.0
594.0	109.8
595.0	120.8
596.0	116.2
597.0	106.6
598.0	112.3
599.0	110.3
600.0	98.59
601.0	89.41
602.0	98.22
603.0	91.02
604.0	90.96
605.0	92.67
606.0	81.52
607.0	73.86
608.0	75.40
609.0	80.09
610.0	78.16
611.0	72.42
612.0	75.52
613.0	78.69
614.0	76.06
615.0	68.82
616.0	63.40
617.0	61.73
618.0	63.66
619.0	64.65
620.0	67.20
621.0	56.08
622.0	49.30
623.0	62.92
624.0	56.64
625.0	49.40
626.0	48.07
627.0	42.91
628.0	50.73
629.0	49.36
630.0	40.82
631.0	40.21
632.0	46.20
633.0	43.40
634.0	40.76
635.0	36.34
636.0	37.86
637.0	41.48
638.0	34.92
639.0	38.75
640.0	36.58
641.0	26.25
642.0	24.57
643.0	26.13
644.0	30.75
645.0	32.09
646.0	29.05
647.0	23.47
648.0	29.26
649.0	23.64
650.0	25.68
651.0	25.71
652.0	22.31
653.0	27.83
654.0	24.84
655.0	27.17
656.0	25.21
657.0	21.71
658.0	18.38
659.0	21.52
660.0	24.42
661.0	23.70
662.0	19.06
663.0	24.64
664.0	16.84
665.0	18.67
666.0	19.91
667.0	18.01
668.0	16.97
669.0	18.95
670.0	16.72
671.0	12.82
672.0	22.21
673.0	16.21
674.0	16.86
675.0	15.17
676.0	13.96
677.0	17.30
678.0	14.03
679.0	15.68
680.0	14.71
681.0	14.37
682.0	15.37
683.0	12.06
684.0	11.18
685.0	11.04
686.0	13.02
687.0	15.06
688.0	13.19
689.0	11.23
690.0	10.51
691.0	8.534
692.0	11.43
693.0	12.16
694.0	9.922
695.0	10.90
696.0	14.22
697.0	8.824
698.0	14.11
699.0	13.17
700.0	14.11
701.0	9.766
702.0	14.25
703.0	7.912
704.0	13.61
705.0	10.43
706.0	9.765
707.0	11.32
708.0	11.55
709.0	10.07
710.0	10.63
711.0	9.164
712.0	8.568
713.0	8.823
714.0	10.06
715.0	7.858
716.0	11.37
717.0	10.68
718.0	8.139
719.0	7.973
720.0	6.674
721.0	6.693
722.0	8.824
723.0	5.530
724.0	9.235
725.0	8.217
726.0	9.133
727.0	10.28
728.0	7.589
729.0	7.119
730.0	8.746
731.0	6.168
732.0	7.077
733.0	7.708
734.0	6.680
735.0	6.039
736.0	10.06
737.0	8.405
738.0	6.702
739.0	7.260
740.0	5.528
741.0	7.296
742.0	4.471
743.0	10.24
744.0	7.388
745.0	7.726
746.0	7.851
747.0	8.256
748.0	5.364
749.0	6.357
750.0	6.359
751.0	5.818
752.0	10.21
753.0	6.895
754.0	9.384
755.0	10.40
756.0	8.158
757.0	6.250
758.0	5.888
759.0	3.848
760.0	7.353
761.0	6.289
762.0	8.532
763.0	7.101
764.0	8.887
765.0	12.56
766.0	6.838
767.0	6.337
768.0	7.382
769.0	4.778
770.0	7.528
771.0	8.874
772.0	7.653
773.0	10.87
774.0	10.88
775.0	11.01
776.0	6.867
777.0	6.040
778.0	5.828
779.0	4.886
780.0	8.095

Sample:	'wa-8(EM)
File name:	10.FDS
Run Date:	'17:00:43, 07/11/2024
Operator:	WXH
Comment:	'

Instrument
Model:	F-4600 FL Spectrophotometer
Serial Number:	3080-002
ROM Version:	5J24000 02

Instrument Parameters
Measurement type:	Wavelength scan
Scan mode:	Emission
Data mode:	Fluorescence
EX WL:	460.0 nm
EM  Start WL:	480.0 nm
EM  End WL:	780.0 nm
Scan speed:	1200 nm/min
Delay:	0.0 s
EX Slit:	2.5 nm
EM Slit:	2.5 nm
PMT Voltage:	600 V
Response:	Auto 
Corrected spectra:	Off
Shutter control:	On

Peak integration
Integration method:	Rectangular
Sensitivity:	1
Threshold:	1.000

Peaks
No.	Valley(nm)	Valley(Data)
1	490.6	85.88
2	514.6	387.7
3	517.0	394.9
4	521.4	385.7
5	524.2	375.3
6	527.6	360.1
7	529.8	352.5
8	531.2	355.5
9	534.6	344.3
10	537.6	329.2
11	541.6	318.6
12	543.6	315.9
13	547.0	302.4
14	551.0	289.0
15	554.2	278.6
16	560.8	248.6
17	570.4	199.3
18	574.6	176.6
19	577.4	156.8
20	581.0	144.7
21	584.2	139.6
22	587.8	117.9
23	593.2	104.8
24	597.8	93.21
25	603.2	87.85
26	607.6	74.78
27	613.8	62.69
28	616.4	65.47
29	621.0	48.14
30	624.2	47.75
31	627.0	47.01
32	630.6	39.87
33	633.0	33.40
34	634.6	34.81
35	636.8	32.32
36	641.2	27.91
37	644.2	31.41
38	648.6	22.34
39	651.6	21.06
40	653.4	19.71
41	656.2	20.67
42	658.4	19.69
43	661.8	13.84
44	668.0	13.88
45	670.4	16.62
46	673.0	13.40
47	677.6	10.86
48	683.4	9.342
49	685.2	8.496
50	688.0	9.812
51	691.2	9.006
52	694.4	5.647
53	698.2	11.08
54	701.2	10.42
55	703.6	7.312
56	705.4	7.264
57	707.2	6.501
58	715.4	3.959
59	717.6	10.12
60	722.0	7.893
61	725.4	2.646
62	730.0	6.029
63	732.4	4.473
64	736.4	8.766
65	738.0	6.789
66	740.0	4.776
67	742.4	5.663
68	744.4	4.007
69	747.0	5.430
70	748.6	7.224
71	751.2	4.057
72	752.6	5.396
73	755.8	6.817
74	764.0	3.161
75	767.0	5.086
76	771.4	5.612
77	775.4	3.697

Data Points
nm	Data
480.0	19.91
481.0	24.06
482.0	25.16
483.0	28.96
484.0	29.13
485.0	41.68
486.0	44.53
487.0	47.45
488.0	52.94
489.0	65.30
490.0	95.81
491.0	94.46
492.0	98.03
493.0	117.6
494.0	123.3
495.0	144.4
496.0	159.4
497.0	166.1
498.0	191.2
499.0	207.2
500.0	226.8
501.0	240.5
502.0	266.1
503.0	276.8
504.0	285.7
505.0	322.6
506.0	334.8
507.0	356.4
508.0	352.6
509.0	368.4
510.0	381.1
511.0	389.7
512.0	402.0
513.0	416.1
514.0	391.2
515.0	419.5
516.0	393.9
517.0	394.9
518.0	421.4
519.0	398.6
520.0	403.2
521.0	405.0
522.0	405.5
523.0	400.8
524.0	378.2
525.0	392.7
526.0	396.9
527.0	374.7
528.0	377.1
529.0	364.9
530.0	360.8
531.0	365.8
532.0	371.5
533.0	384.7
534.0	353.6
535.0	362.7
536.0	353.6
537.0	336.2
538.0	332.6
539.0	347.8
540.0	345.9
541.0	330.3
542.0	337.6
543.0	339.4
544.0	320.6
545.0	320.5
546.0	321.5
547.0	302.4
548.0	320.8
549.0	338.1
550.0	328.5
551.0	289.0
552.0	299.1
553.0	299.8
554.0	294.0
555.0	295.4
556.0	292.3
557.0	313.0
558.0	289.9
559.0	263.8
560.0	268.1
561.0	254.0
562.0	262.7
563.0	247.7
564.0	251.7
565.0	231.4
566.0	226.0
567.0	211.9
568.0	210.9
569.0	203.4
570.0	202.5
571.0	209.4
572.0	196.6
573.0	197.3
574.0	193.0
575.0	185.9
576.0	169.3
577.0	160.7
578.0	174.7
579.0	176.9
580.0	162.7
581.0	144.7
582.0	148.3
583.0	154.5
584.0	146.8
585.0	146.3
586.0	149.0
587.0	132.1
588.0	124.8
589.0	132.1
590.0	137.1
591.0	118.4
592.0	106.3
593.0	108.3
594.0	106.3
595.0	122.9
596.0	111.8
597.0	101.2
598.0	102.0
599.0	100.1
600.0	102.7
601.0	100.7
602.0	101.7
603.0	89.58
604.0	94.45
605.0	86.56
606.0	80.46
607.0	76.23
608.0	81.74
609.0	90.93
610.0	76.68
611.0	76.73
612.0	79.61
613.0	70.52
614.0	65.76
615.0	80.31
616.0	66.27
617.0	74.61
618.0	66.34
619.0	64.73
620.0	58.66
621.0	48.14
622.0	65.25
623.0	54.85
624.0	51.67
625.0	52.56
626.0	55.35
627.0	47.01
628.0	55.11
629.0	49.50
630.0	44.04
631.0	39.96
632.0	46.72
633.0	33.40
634.0	38.69
635.0	39.44
636.0	42.90
637.0	36.67
638.0	33.52
639.0	35.45
640.0	30.34
641.0	29.05
642.0	38.68
643.0	33.49
644.0	37.02
645.0	34.18
646.0	38.32
647.0	33.16
648.0	27.40
649.0	23.07
650.0	26.84
651.0	22.15
652.0	23.96
653.0	27.25
654.0	20.96
655.0	20.40
656.0	25.29
657.0	24.69
658.0	23.99
659.0	23.04
660.0	23.02
661.0	17.60
662.0	18.03
663.0	16.29
664.0	19.95
665.0	18.25
666.0	19.51
667.0	16.51
668.0	13.88
669.0	19.37
670.0	18.10
671.0	17.98
672.0	17.44
673.0	13.40
674.0	14.33
675.0	15.27
676.0	15.56
677.0	12.21
678.0	13.47
679.0	14.58
680.0	12.47
681.0	13.04
682.0	10.14
683.0	10.25
684.0	12.74
685.0	9.974
686.0	11.55
687.0	14.71
688.0	9.812
689.0	17.82
690.0	11.36
691.0	10.93
692.0	13.49
693.0	10.01
694.0	7.273
695.0	10.14
696.0	9.181
697.0	13.25
698.0	12.86
699.0	13.52
700.0	12.26
701.0	12.68
702.0	11.42
703.0	7.383
704.0	8.719
705.0	7.708
706.0	9.001
707.0	9.415
708.0	7.783
709.0	13.23
710.0	9.588
711.0	10.20
712.0	8.878
713.0	7.419
714.0	6.727
715.0	6.522
716.0	8.557
717.0	9.714
718.0	10.20
719.0	12.14
720.0	11.52
721.0	9.620
722.0	7.893
723.0	10.53
724.0	6.247
725.0	5.034
726.0	3.791
727.0	7.200
728.0	11.00
729.0	10.72
730.0	6.029
731.0	8.398
732.0	6.363
733.0	6.274
734.0	10.88
735.0	8.213
736.0	9.521
737.0	8.731
738.0	6.789
739.0	9.416
740.0	4.776
741.0	11.05
742.0	6.022
743.0	9.299
744.0	6.779
745.0	6.966
746.0	10.93
747.0	5.430
748.0	9.993
749.0	7.805
750.0	9.147
751.0	5.821
752.0	7.375
753.0	6.321
754.0	9.462
755.0	7.547
756.0	10.43
757.0	11.79
758.0	10.06
759.0	9.891
760.0	8.107
761.0	7.143
762.0	4.530
763.0	5.272
764.0	3.161
765.0	5.991
766.0	7.556
767.0	5.086
768.0	5.467
769.0	8.572
770.0	8.495
771.0	6.964
772.0	8.537
773.0	8.255
774.0	8.474
775.0	5.694
776.0	4.602
777.0	7.428
778.0	7.637
779.0	6.903
780.0	7.819

Sample:	'wa-9(EM)
File name:	10.FDS
Run Date:	'17:01:13, 07/11/2024
Operator:	WXH
Comment:	'

Instrument
Model:	F-4600 FL Spectrophotometer
Serial Number:	3080-002
ROM Version:	5J24000 02

Instrument Parameters
Measurement type:	Wavelength scan
Scan mode:	Emission
Data mode:	Fluorescence
EX WL:	460.0 nm
EM  Start WL:	480.0 nm
EM  End WL:	780.0 nm
Scan speed:	1200 nm/min
Delay:	0.0 s
EX Slit:	2.5 nm
EM Slit:	2.5 nm
PMT Voltage:	600 V
Response:	Auto 
Corrected spectra:	Off
Shutter control:	On

Peak integration
Integration method:	Rectangular
Sensitivity:	1
Threshold:	1.000

Peaks
No.	Valley(nm)	Valley(Data)
1	483.2	25.06
2	490.4	73.72
3	502.4	266.9
4	508.6	343.8
5	514.6	377.4
6	521.8	388.3
7	524.0	379.5
8	529.4	350.6
9	531.6	347.5
10	534.0	349.0
11	536.6	334.6
12	543.6	310.5
13	545.6	311.3
14	547.2	303.3
15	550.2	295.9
16	551.6	287.8
17	553.8	292.6
18	558.0	271.9
19	571.6	191.0
20	576.4	165.8
21	580.0	155.6
22	583.6	145.6
23	585.8	132.7
24	592.8	115.5
25	596.4	97.47
26	598.4	96.56
27	600.6	89.87
28	603.8	86.19
29	607.6	79.19
30	610.0	82.52
31	614.4	65.73
32	618.0	55.75
33	620.8	53.28
34	621.8	53.95
35	625.6	46.37
36	629.8	37.67
37	633.4	33.09
38	637.2	34.95
39	640.6	28.07
40	646.2	24.88
41	648.4	18.42
42	651.2	20.21
43	653.2	20.17
44	657.0	18.75
45	659.6	15.96
46	662.4	16.92
47	664.6	12.99
48	669.0	14.04
49	673.8	9.579
50	676.6	11.04
51	679.6	9.291
52	682.8	8.332
53	684.6	9.477
54	687.0	9.366
55	689.4	7.672
56	695.4	6.129
57	697.2	7.342
58	703.0	5.486
59	708.8	8.471
60	712.2	6.401
61	714.6	6.545
62	716.0	7.486
63	720.2	4.640
64	724.0	7.186
65	728.6	6.099
66	731.0	6.095
67	735.6	5.763
68	738.2	5.780
69	741.6	5.507
70	747.0	6.440
71	749.6	5.874
72	752.4	7.252
73	761.6	4.394
74	766.6	5.146
75	772.2	6.814
76	775.4	4.320
77	777.4	4.795

Data Points
nm	Data
480.0	16.60
481.0	21.83
482.0	28.23
483.0	25.64
484.0	33.30
485.0	39.37
486.0	43.39
487.0	52.37
488.0	57.56
489.0	70.33
490.0	75.03
491.0	82.84
492.0	102.7
493.0	125.5
494.0	142.6
495.0	139.6
496.0	182.6
497.0	192.1
498.0	187.3
499.0	211.4
500.0	229.6
501.0	250.7
502.0	286.7
503.0	269.9
504.0	308.5
505.0	335.5
506.0	349.7
507.0	353.7
508.0	351.0
509.0	361.3
510.0	371.6
511.0	387.2
512.0	411.2
513.0	397.4
514.0	405.5
515.0	392.0
516.0	409.1
517.0	412.3
518.0	417.0
519.0	416.4
520.0	421.7
521.0	395.1
522.0	390.9
523.0	400.8
524.0	379.5
525.0	398.7
526.0	383.4
527.0	399.5
528.0	387.2
529.0	357.4
530.0	368.2
531.0	354.9
532.0	361.5
533.0	369.5
534.0	349.0
535.0	369.1
536.0	345.4
537.0	350.0
538.0	344.0
539.0	353.6
540.0	335.1
541.0	347.9
542.0	340.9
543.0	327.2
544.0	329.6
545.0	319.2
546.0	320.9
547.0	306.3
548.0	324.7
549.0	321.4
550.0	297.7
551.0	300.6
552.0	298.2
553.0	305.5
554.0	296.1
555.0	297.7
556.0	292.0
557.0	280.5
558.0	271.9
559.0	285.7
560.0	273.7
561.0	264.2
562.0	246.1
563.0	241.8
564.0	236.2
565.0	233.3
566.0	237.1
567.0	227.5
568.0	224.4
569.0	211.9
570.0	210.4
571.0	212.9
572.0	210.2
573.0	200.8
574.0	198.3
575.0	192.5
576.0	176.1
577.0	178.1
578.0	172.2
579.0	158.3
580.0	155.6
581.0	163.6
582.0	155.7
583.0	152.8
584.0	152.5
585.0	151.9
586.0	146.0
587.0	144.0
588.0	137.2
589.0	138.0
590.0	132.8
591.0	123.7
592.0	121.5
593.0	118.3
594.0	112.1
595.0	105.5
596.0	109.7
597.0	102.1
598.0	104.8
599.0	107.8
600.0	97.67
601.0	97.79
602.0	100.6
603.0	86.23
604.0	86.78
605.0	86.93
606.0	92.19
607.0	95.65
608.0	85.42
609.0	86.81
610.0	82.52
611.0	86.98
612.0	79.73
613.0	81.42
614.0	70.49
615.0	71.85
616.0	74.59
617.0	58.57
618.0	55.75
619.0	63.36
620.0	55.13
621.0	60.14
622.0	54.35
623.0	60.59
624.0	54.49
625.0	50.20
626.0	56.29
627.0	51.05
628.0	48.69
629.0	50.97
630.0	39.80
631.0	44.78
632.0	43.13
633.0	40.81
634.0	33.64
635.0	41.23
636.0	38.58
637.0	36.08
638.0	36.82
639.0	37.62
640.0	36.11
641.0	33.70
642.0	35.24
643.0	31.77
644.0	27.95
645.0	29.31
646.0	26.35
647.0	29.40
648.0	19.95
649.0	25.40
650.0	24.45
651.0	20.87
652.0	25.21
653.0	23.38
654.0	27.76
655.0	25.03
656.0	17.64
657.0	18.75
658.0	28.06
659.0	20.10
660.0	20.70
661.0	23.64
662.0	19.41
663.0	22.78
664.0	19.48
665.0	15.47
666.0	15.62
667.0	16.07
668.0	19.12
669.0	14.04
670.0	14.05
671.0	14.90
672.0	15.18
673.0	14.20
674.0	9.746
675.0	14.74
676.0	11.53
677.0	18.98
678.0	14.85
679.0	9.866
680.0	10.05
681.0	12.19
682.0	11.89
683.0	10.79
684.0	11.91
685.0	11.28
686.0	12.09
687.0	9.366
688.0	12.32
689.0	11.37
690.0	11.42
691.0	13.16
692.0	11.73
693.0	10.81
694.0	11.37
695.0	7.366
696.0	8.163
697.0	8.985
698.0	11.33
699.0	11.29
700.0	9.058
701.0	5.925
702.0	6.482
703.0	5.486
704.0	8.206
705.0	9.265
706.0	10.35
707.0	12.72
708.0	10.85
709.0	10.89
710.0	11.57
711.0	12.18
712.0	8.242
713.0	8.149
714.0	8.175
715.0	10.27
716.0	7.486
717.0	9.160
718.0	7.858
719.0	7.193
720.0	5.864
721.0	8.557
722.0	11.15
723.0	7.975
724.0	7.186
725.0	9.298
726.0	11.24
727.0	9.446
728.0	10.31
729.0	8.037
730.0	9.248
731.0	6.095
732.0	7.853
733.0	8.899
734.0	7.502
735.0	6.882
736.0	8.355
737.0	10.58
738.0	6.994
739.0	6.584
740.0	10.38
741.0	10.01
742.0	6.357
743.0	8.965
744.0	10.34
745.0	10.00
746.0	10.91
747.0	6.440
748.0	6.936
749.0	9.554
750.0	8.172
751.0	10.23
752.0	12.58
753.0	8.192
754.0	8.533
755.0	9.591
756.0	5.993
757.0	9.161
758.0	7.085
759.0	6.768
760.0	6.817
761.0	4.531
762.0	7.247
763.0	6.075
764.0	10.33
765.0	10.49
766.0	7.286
767.0	6.393
768.0	8.662
769.0	10.24
770.0	11.70
771.0	7.962
772.0	6.855
773.0	8.993
774.0	6.501
775.0	5.289
776.0	6.720
777.0	7.870
778.0	6.077
779.0	9.771
780.0	6.882

Sample:	'wa-10(EM)
File name:	10.FDS
Run Date:	'17:01:44, 07/11/2024
Operator:	WXH
Comment:	'

Instrument
Model:	F-4600 FL Spectrophotometer
Serial Number:	3080-002
ROM Version:	5J24000 02

Instrument Parameters
Measurement type:	Wavelength scan
Scan mode:	Emission
Data mode:	Fluorescence
EX WL:	460.0 nm
EM  Start WL:	480.0 nm
EM  End WL:	780.0 nm
Scan speed:	1200 nm/min
Delay:	0.0 s
EX Slit:	2.5 nm
EM Slit:	2.5 nm
PMT Voltage:	600 V
Response:	Auto 
Corrected spectra:	Off
Shutter control:	On

Peak integration
Integration method:	Rectangular
Sensitivity:	1
Threshold:	1.000

Peaks
No.	Valley(nm)	Valley(Data)
1	512.8	395.2
2	519.8	375.5
3	524.2	369.1
4	527.0	379.0
5	529.2	380.4
6	532.2	357.7
7	535.2	355.2
8	538.6	332.3
9	539.8	336.8
10	543.8	307.6
11	547.6	321.8
12	550.2	304.9
13	552.8	294.8
14	557.6	252.5
15	563.4	241.3
16	571.2	203.0
17	581.2	146.4
18	585.2	140.0
19	587.2	119.7
20	590.0	106.0
21	594.0	108.9
22	596.4	105.6
23	602.0	85.82
24	605.6	85.37
25	609.2	79.32
26	616.4	60.26
27	619.0	52.83
28	622.2	47.76
29	627.4	43.93
30	629.8	45.05
31	632.6	39.95
32	636.4	35.82
33	640.8	28.27
34	642.4	29.48
35	645.0	25.46
36	648.2	21.43
37	650.8	22.88
38	655.2	18.25
39	657.8	22.86
40	660.4	18.79
41	662.8	17.77
42	665.8	18.80
43	667.4	16.22
44	673.8	14.33
45	676.4	13.84
46	678.6	10.78
47	682.4	11.02
48	684.8	10.78
49	686.4	10.12
50	692.2	7.887
51	698.8	7.634
52	702.6	8.451
53	705.2	7.295
54	707.8	6.431
55	710.6	7.041
56	714.0	6.769
57	716.8	7.714
58	720.2	5.853
59	723.8	7.152
60	726.8	6.791
61	728.4	5.976
62	732.0	6.635
63	734.8	5.828
64	736.8	4.704
65	740.2	2.934
66	748.4	5.276
67	755.0	6.375
68	758.4	4.701
69	760.6	5.206
70	763.0	5.708
71	764.4	5.522
72	770.2	4.569
73	774.2	7.198
74	778.0	4.080

Data Points
nm	Data
480.0	22.61
481.0	26.95
482.0	24.04
483.0	30.13
484.0	34.43
485.0	38.45
486.0	44.19
487.0	46.98
488.0	66.90
489.0	66.64
490.0	80.43
491.0	91.72
492.0	101.4
493.0	118.7
494.0	127.1
495.0	152.0
496.0	183.1
497.0	186.7
498.0	196.1
499.0	191.4
500.0	238.1
501.0	255.0
502.0	269.1
503.0	281.8
504.0	304.5
505.0	331.5
506.0	330.5
507.0	360.0
508.0	383.6
509.0	369.9
510.0	381.8
511.0	402.5
512.0	405.6
513.0	395.9
514.0	402.5
515.0	423.7
516.0	420.6
517.0	415.7
518.0	414.7
519.0	385.5
520.0	393.7
521.0	412.0
522.0	394.4
523.0	385.9
524.0	375.4
525.0	404.1
526.0	394.2
527.0	379.0
528.0	405.0
529.0	394.9
530.0	396.0
531.0	363.1
532.0	363.4
533.0	363.4
534.0	362.2
535.0	355.7
536.0	367.5
537.0	345.0
538.0	345.2
539.0	342.9
540.0	344.9
541.0	343.4
542.0	329.5
543.0	331.6
544.0	311.8
545.0	333.4
546.0	334.0
547.0	327.4
548.0	347.4
549.0	328.5
550.0	316.1
551.0	313.9
552.0	307.4
553.0	308.4
554.0	302.5
555.0	307.3
556.0	291.0
557.0	269.2
558.0	289.0
559.0	271.1
560.0	273.4
561.0	265.7
562.0	251.5
563.0	250.0
564.0	243.6
565.0	248.8
566.0	237.6
567.0	236.1
568.0	222.2
569.0	213.2
570.0	216.2
571.0	213.3
572.0	215.2
573.0	198.9
574.0	205.5
575.0	199.4
576.0	192.7
577.0	179.3
578.0	172.0
579.0	167.6
580.0	170.1
581.0	156.6
582.0	169.8
583.0	160.4
584.0	151.9
585.0	150.6
586.0	147.1
587.0	129.5
588.0	128.5
589.0	124.0
590.0	106.0
591.0	129.5
592.0	117.1
593.0	119.6
594.0	108.9
595.0	117.9
596.0	108.9
597.0	112.4
598.0	114.6
599.0	108.3
600.0	103.3
601.0	104.6
602.0	85.82
603.0	95.43
604.0	104.6
605.0	84.80
606.0	85.84
607.0	89.30
608.0	85.97
609.0	80.14
610.0	83.26
611.0	91.92
612.0	94.43
613.0	75.40
614.0	72.58
615.0	66.85
616.0	60.92
617.0	66.82
618.0	63.09
619.0	52.83
620.0	55.91
621.0	61.37
622.0	54.15
623.0	54.18
624.0	57.72
625.0	58.97
626.0	47.77
627.0	48.30
628.0	49.36
629.0	55.32
630.0	47.87
631.0	48.35
632.0	45.12
633.0	44.91
634.0	45.27
635.0	35.78
636.0	36.10
637.0	42.54
638.0	41.79
639.0	39.45
640.0	30.08
641.0	35.94
642.0	35.27
643.0	37.42
644.0	35.23
645.0	25.46
646.0	29.17
647.0	26.20
648.0	23.41
649.0	27.33
650.0	26.60
651.0	23.43
652.0	30.81
653.0	28.20
654.0	19.23
655.0	19.87
656.0	23.00
657.0	24.70
658.0	23.15
659.0	20.18
660.0	21.96
661.0	20.11
662.0	22.59
663.0	23.70
664.0	29.58
665.0	21.60
666.0	24.02
667.0	22.71
668.0	18.19
669.0	18.51
670.0	20.47
671.0	21.06
672.0	22.24
673.0	13.93
674.0	15.36
675.0	19.96
676.0	16.53
677.0	15.49
678.0	17.16
679.0	17.26
680.0	16.69
681.0	17.41
682.0	12.49
683.0	16.54
684.0	11.72
685.0	16.13
686.0	11.64
687.0	16.56
688.0	13.63
689.0	15.70
690.0	11.88
691.0	11.92
692.0	8.729
693.0	9.675
694.0	11.32
695.0	17.45
696.0	11.10
697.0	11.81
698.0	8.931
699.0	9.159
700.0	11.15
701.0	11.27
702.0	10.82
703.0	9.197
704.0	10.69
705.0	9.352
706.0	8.826
707.0	10.03
708.0	7.705
709.0	9.923
710.0	11.30
711.0	9.141
712.0	9.412
713.0	9.998
714.0	6.769
715.0	7.393
716.0	10.22
717.0	8.085
718.0	11.34
719.0	7.567
720.0	6.862
721.0	7.590
722.0	9.727
723.0	7.909
724.0	9.002
725.0	9.942
726.0	7.655
727.0	10.22
728.0	6.239
729.0	7.744
730.0	8.096
731.0	8.972
732.0	6.635
733.0	15.11
734.0	9.754
735.0	5.955
736.0	5.638
737.0	4.767
738.0	8.146
739.0	7.321
740.0	4.085
741.0	9.625
742.0	9.671
743.0	14.86
744.0	9.504
745.0	9.762
746.0	6.342
747.0	6.949
748.0	5.752
749.0	7.649
750.0	8.920
751.0	6.605
752.0	8.723
753.0	7.678
754.0	7.520
755.0	6.375
756.0	6.909
757.0	9.314
758.0	10.28
759.0	9.699
760.0	8.330
761.0	10.20
762.0	6.629
763.0	5.708
764.0	5.644
765.0	9.820
766.0	9.265
767.0	10.58
768.0	12.31
769.0	9.914
770.0	6.197
771.0	6.572
772.0	9.703
773.0	9.125
774.0	7.751
775.0	8.403
776.0	9.474
777.0	8.645
778.0	4.080
779.0	5.313
780.0	7.855

Sample:	'wa-11(EM)
File name:	10.FDS
Run Date:	'17:02:14, 07/11/2024
Operator:	WXH
Comment:	'

Instrument
Model:	F-4600 FL Spectrophotometer
Serial Number:	3080-002
ROM Version:	5J24000 02

Instrument Parameters
Measurement type:	Wavelength scan
Scan mode:	Emission
Data mode:	Fluorescence
EX WL:	460.0 nm
EM  Start WL:	480.0 nm
EM  End WL:	780.0 nm
Scan speed:	1200 nm/min
Delay:	0.0 s
EX Slit:	2.5 nm
EM Slit:	2.5 nm
PMT Voltage:	600 V
Response:	Auto 
Corrected spectra:	Off
Shutter control:	On

Peak integration
Integration method:	Rectangular
Sensitivity:	1
Threshold:	1.000

Peaks
No.	Valley(nm)	Valley(Data)
1	514.6	386.1
2	517.6	403.1
3	520.4	383.4
4	524.6	369.3
5	526.2	355.0
6	528.4	363.6
7	533.2	349.8
8	537.2	333.1
9	539.4	320.2
10	542.2	316.8
11	547.2	305.0
12	549.4	300.9
13	554.2	284.3
14	559.8	259.7
15	564.0	231.7
16	573.4	177.5
17	575.6	168.4
18	581.4	151.2
19	585.8	125.2
20	588.2	124.4
21	593.0	110.7
22	595.2	102.1
23	597.2	98.74
24	609.4	72.12
25	615.0	59.09
26	622.6	49.82
27	625.0	45.52
28	629.2	38.03
29	634.4	34.19
30	641.2	26.93
31	646.4	24.63
32	648.6	25.92
33	652.0	18.13
34	654.2	21.26
35	661.2	15.55
36	665.6	16.17
37	668.4	13.69
38	671.6	15.43
39	673.6	13.30
40	677.4	9.691
41	681.0	9.353
42	686.6	9.800
43	691.2	8.368
44	696.0	9.449
45	700.0	6.198
46	704.6	7.956
47	706.8	5.043
48	710.6	7.179
49	712.6	6.359
50	715.4	8.527
51	719.8	4.733
52	728.8	4.575
53	732.6	6.973
54	734.6	6.000
55	737.0	4.356
56	739.8	5.501
57	742.6	5.104
58	743.8	4.598
59	747.4	6.279
60	749.8	6.370
61	751.8	5.911
62	755.6	5.319
63	762.6	4.304
64	766.4	5.728
65	769.4	5.538
66	772.8	6.697
67	775.0	6.194
68	778.6	6.282

Data Points
nm	Data
480.0	35.99
481.0	25.39
482.0	24.80
483.0	28.30
484.0	33.81
485.0	41.11
486.0	43.57
487.0	49.96
488.0	56.96
489.0	69.99
490.0	89.21
491.0	91.79
492.0	100.5
493.0	108.4
494.0	131.7
495.0	150.5
496.0	149.7
497.0	175.4
498.0	191.8
499.0	206.6
500.0	224.1
501.0	252.0
502.0	259.4
503.0	287.3
504.0	291.8
505.0	308.6
506.0	331.7
507.0	351.1
508.0	377.1
509.0	363.0
510.0	376.2
511.0	383.1
512.0	400.3
513.0	409.2
514.0	399.3
515.0	410.6
516.0	433.9
517.0	427.0
518.0	406.3
519.0	408.2
520.0	385.9
521.0	402.7
522.0	401.4
523.0	405.3
524.0	384.0
525.0	385.5
526.0	359.0
527.0	369.4
528.0	376.9
529.0	391.8
530.0	375.2
531.0	377.5
532.0	369.0
533.0	360.6
534.0	374.2
535.0	356.0
536.0	344.0
537.0	339.7
538.0	353.2
539.0	331.3
540.0	322.9
541.0	343.0
542.0	321.4
543.0	340.5
544.0	342.3
545.0	330.4
546.0	329.2
547.0	311.8
548.0	320.2
549.0	321.2
550.0	301.5
551.0	323.1
552.0	313.3
553.0	301.6
554.0	286.3
555.0	295.8
556.0	295.5
557.0	279.4
558.0	279.9
559.0	279.7
560.0	264.6
561.0	284.3
562.0	263.1
563.0	257.4
564.0	231.7
565.0	234.2
566.0	245.4
567.0	214.1
568.0	207.7
569.0	213.5
570.0	211.5
571.0	196.9
572.0	189.1
573.0	183.0
574.0	189.0
575.0	180.7
576.0	177.6
577.0	170.0
578.0	166.1
579.0	172.8
580.0	165.5
581.0	158.3
582.0	159.7
583.0	156.4
584.0	144.7
585.0	147.3
586.0	132.5
587.0	136.1
588.0	132.9
589.0	140.4
590.0	138.8
591.0	134.8
592.0	115.0
593.0	110.7
594.0	117.0
595.0	104.9
596.0	112.4
597.0	99.94
598.0	108.5
599.0	107.4
600.0	96.68
601.0	98.03
602.0	85.33
603.0	91.12
604.0	86.24
605.0	85.03
606.0	72.95
607.0	80.74
608.0	76.50
609.0	77.48
610.0	79.75
611.0	80.34
612.0	73.17
613.0	74.98
614.0	66.74
615.0	59.09
616.0	67.05
617.0	61.05
618.0	66.65
619.0	62.21
620.0	65.72
621.0	56.94
622.0	53.44
623.0	53.17
624.0	62.53
625.0	45.52
626.0	58.01
627.0	46.60
628.0	48.37
629.0	41.83
630.0	40.01
631.0	40.96
632.0	41.05
633.0	38.18
634.0	35.37
635.0	39.27
636.0	44.83
637.0	36.39
638.0	33.62
639.0	30.70
640.0	28.12
641.0	27.23
642.0	30.57
643.0	34.83
644.0	34.84
645.0	32.42
646.0	31.53
647.0	26.50
648.0	32.97
649.0	29.02
650.0	31.80
651.0	21.21
652.0	18.13
653.0	25.34
654.0	23.62
655.0	27.83
656.0	23.84
657.0	25.39
658.0	21.28
659.0	22.62
660.0	17.81
661.0	19.52
662.0	18.73
663.0	21.22
664.0	17.67
665.0	17.57
666.0	22.28
667.0	14.78
668.0	17.07
669.0	19.42
670.0	21.87
671.0	17.61
672.0	18.24
673.0	15.58
674.0	13.73
675.0	15.66
676.0	14.78
677.0	12.63
678.0	11.78
679.0	13.46
680.0	13.68
681.0	9.353
682.0	14.93
683.0	12.78
684.0	15.55
685.0	14.65
686.0	11.79
687.0	12.23
688.0	12.91
689.0	15.36
690.0	9.609
691.0	8.607
692.0	10.90
693.0	11.76
694.0	10.57
695.0	12.14
696.0	9.449
697.0	9.528
698.0	9.371
699.0	7.969
700.0	6.198
701.0	6.641
702.0	7.824
703.0	12.69
704.0	11.03
705.0	11.50
706.0	10.92
707.0	7.593
708.0	10.66
709.0	9.353
710.0	8.169
711.0	8.214
712.0	8.455
713.0	8.857
714.0	11.72
715.0	8.769
716.0	10.78
717.0	11.30
718.0	11.42
719.0	9.066
720.0	7.577
721.0	6.727
722.0	6.672
723.0	9.682
724.0	14.25
725.0	11.13
726.0	11.79
727.0	7.650
728.0	6.530
729.0	7.811
730.0	10.67
731.0	6.452
732.0	7.336
733.0	8.732
734.0	8.470
735.0	7.211
736.0	8.176
737.0	4.356
738.0	9.182
739.0	5.333
740.0	5.537
741.0	8.846
742.0	7.010
743.0	9.370
744.0	6.145
745.0	6.472
746.0	7.619
747.0	8.672
748.0	7.359
749.0	6.745
750.0	6.378
751.0	7.428
752.0	6.981
753.0	6.426
754.0	7.809
755.0	6.786
756.0	9.338
757.0	7.323
758.0	5.489
759.0	8.374
760.0	8.348
761.0	8.957
762.0	6.714
763.0	6.490
764.0	10.88
765.0	7.124
766.0	6.338
767.0	9.486
768.0	9.345
769.0	6.884
770.0	6.329
771.0	7.275
772.0	8.452
773.0	8.045
774.0	9.526
775.0	6.194
776.0	9.156
777.0	7.435
778.0	7.169
779.0	10.05
780.0	7.441

Sample:	'wa-12(EM)
File name:	10.FDS
Run Date:	'17:02:44, 07/11/2024
Operator:	WXH
Comment:	'

Instrument
Model:	F-4600 FL Spectrophotometer
Serial Number:	3080-002
ROM Version:	5J24000 02

Instrument Parameters
Measurement type:	Wavelength scan
Scan mode:	Emission
Data mode:	Fluorescence
EX WL:	460.0 nm
EM  Start WL:	480.0 nm
EM  End WL:	780.0 nm
Scan speed:	1200 nm/min
Delay:	0.0 s
EX Slit:	2.5 nm
EM Slit:	2.5 nm
PMT Voltage:	600 V
Response:	Auto 
Corrected spectra:	Off
Shutter control:	On

Peak integration
Integration method:	Rectangular
Sensitivity:	1
Threshold:	1.000

Peaks
No.	Valley(nm)	Valley(Data)
1	489.0	61.35
2	508.6	342.3
3	513.8	399.1
4	516.2	377.5
5	520.4	393.6
6	524.8	373.8
7	527.2	376.1
8	532.2	353.4
9	536.8	331.3
10	538.6	322.0
11	540.8	322.9
12	545.8	309.0
13	550.2	296.2
14	551.6	288.2
15	554.4	286.0
16	558.2	255.1
17	565.8	218.1
18	569.8	198.6
19	575.2	168.7
20	583.0	133.7
21	584.6	127.1
22	586.4	136.0
23	594.6	100.8
24	597.4	97.57
25	600.8	87.33
26	608.8	72.42
27	612.0	70.47
28	618.0	56.37
29	623.4	49.06
30	627.2	42.12
31	630.6	35.85
32	635.4	31.00
33	642.6	30.69
34	645.0	22.28
35	647.2	24.43
36	649.6	25.49
37	651.4	21.13
38	653.8	24.81
39	657.4	16.19
40	659.4	16.56
41	663.6	17.22
42	668.4	15.08
43	673.4	11.31
44	679.4	10.50
45	682.6	10.54
46	687.8	8.774
47	692.0	7.795
48	697.8	6.147
49	700.8	5.993
50	705.0	8.082
51	707.4	7.387
52	710.2	6.752
53	713.8	6.001
54	717.4	4.859
55	721.2	6.627
56	723.8	5.221
57	727.4	7.027
58	729.4	7.877
59	731.6	5.244
60	733.8	5.343
61	736.8	4.541
62	740.6	4.071
63	743.0	5.524
64	748.2	4.985
65	750.8	4.704
66	753.4	6.525
67	758.8	4.453
68	761.2	5.431
69	763.4	6.073
70	765.2	5.383
71	768.0	6.400
72	769.4	5.527
73	772.6	3.610
74	780.0	4.710

Data Points
nm	Data
480.0	30.15
481.0	20.98
482.0	20.42
483.0	25.51
484.0	26.05
485.0	36.03
486.0	41.37
487.0	54.22
488.0	64.04
489.0	61.35
490.0	72.31
491.0	78.70
492.0	111.3
493.0	108.3
494.0	131.6
495.0	141.2
496.0	166.2
497.0	182.1
498.0	200.0
499.0	216.4
500.0	238.8
501.0	251.5
502.0	270.4
503.0	274.6
504.0	297.2
505.0	311.4
506.0	327.0
507.0	354.3
508.0	359.2
509.0	367.8
510.0	369.9
511.0	386.8
512.0	403.1
513.0	423.2
514.0	400.9
515.0	411.3
516.0	386.9
517.0	402.3
518.0	403.2
519.0	398.9
520.0	394.7
521.0	407.9
522.0	411.5
523.0	424.8
524.0	391.9
525.0	385.7
526.0	392.7
527.0	389.7
528.0	409.8
529.0	379.1
530.0	366.0
531.0	367.3
532.0	362.6
533.0	356.1
534.0	375.1
535.0	340.7
536.0	349.2
537.0	340.4
538.0	332.4
539.0	325.4
540.0	345.8
541.0	328.9
542.0	334.5
543.0	340.2
544.0	331.8
545.0	316.3
546.0	324.4
547.0	333.5
548.0	324.2
549.0	321.5
550.0	299.2
551.0	306.0
552.0	290.6
553.0	296.1
554.0	291.0
555.0	292.8
556.0	312.0
557.0	282.4
558.0	268.9
559.0	262.9
560.0	291.5
561.0	271.2
562.0	257.2
563.0	253.6
564.0	243.1
565.0	229.9
566.0	226.1
567.0	225.5
568.0	229.5
569.0	227.0
570.0	201.2
571.0	209.5
572.0	205.1
573.0	216.1
574.0	191.2
575.0	176.6
576.0	185.0
577.0	182.8
578.0	179.6
579.0	163.9
580.0	164.0
581.0	157.4
582.0	139.0
583.0	133.7
584.0	140.7
585.0	136.0
586.0	137.7
587.0	140.5
588.0	135.8
589.0	132.6
590.0	134.3
591.0	124.1
592.0	117.2
593.0	107.6
594.0	110.3
595.0	104.6
596.0	109.7
597.0	107.8
598.0	108.0
599.0	108.1
600.0	90.62
601.0	89.10
602.0	102.4
603.0	88.30
604.0	91.04
605.0	88.23
606.0	89.11
607.0	87.53
608.0	78.29
609.0	81.00
610.0	79.66
611.0	80.09
612.0	70.47
613.0	80.67
614.0	81.96
615.0	68.30
616.0	69.36
617.0	61.66
618.0	56.37
619.0	68.07
620.0	55.80
621.0	53.08
622.0	54.83
623.0	54.66
624.0	59.43
625.0	63.88
626.0	45.36
627.0	44.49
628.0	49.92
629.0	43.53
630.0	42.14
631.0	41.86
632.0	48.27
633.0	38.51
634.0	41.11
635.0	35.07
636.0	34.84
637.0	31.92
638.0	41.62
639.0	40.19
640.0	35.37
641.0	37.77
642.0	33.08
643.0	33.11
644.0	28.53
645.0	22.28
646.0	31.00
647.0	25.77
648.0	26.24
649.0	26.00
650.0	27.88
651.0	22.30
652.0	21.20
653.0	24.92
654.0	25.12
655.0	21.47
656.0	25.08
657.0	17.84
658.0	22.20
659.0	18.97
660.0	18.83
661.0	21.69
662.0	20.06
663.0	17.66
664.0	18.63
665.0	17.91
666.0	20.33
667.0	20.45
668.0	19.28
669.0	16.50
670.0	18.30
671.0	16.85
672.0	14.05
673.0	15.89
674.0	14.67
675.0	18.70
676.0	15.12
677.0	12.12
678.0	12.82
679.0	11.85
680.0	15.90
681.0	14.26
682.0	12.07
683.0	16.41
684.0	12.22
685.0	13.24
686.0	13.45
687.0	11.17
688.0	9.942
689.0	14.79
690.0	9.852
691.0	11.88
692.0	7.795
693.0	10.53
694.0	11.40
695.0	12.19
696.0	11.30
697.0	7.925
698.0	7.777
699.0	9.174
700.0	10.85
701.0	5.995
702.0	9.908
703.0	12.40
704.0	11.46
705.0	8.082
706.0	11.17
707.0	8.133
708.0	8.927
709.0	9.348
710.0	7.691
711.0	11.10
712.0	12.00
713.0	11.78
714.0	6.285
715.0	8.008
716.0	8.075
717.0	5.224
718.0	7.470
719.0	8.319
720.0	11.75
721.0	7.464
722.0	10.11
723.0	8.110
724.0	6.077
725.0	9.480
726.0	8.658
727.0	8.870
728.0	9.635
729.0	8.109
730.0	9.575
731.0	7.140
732.0	9.048
733.0	9.930
734.0	7.944
735.0	7.449
736.0	6.039
737.0	8.645
738.0	4.841
739.0	7.220
740.0	5.778
741.0	7.294
742.0	8.323
743.0	5.524
744.0	8.266
745.0	7.465
746.0	7.901
747.0	7.949
748.0	7.179
749.0	9.996
750.0	6.006
751.0	7.400
752.0	5.941
753.0	10.19
754.0	7.707
755.0	11.52
756.0	9.021
757.0	8.449
758.0	5.997
759.0	6.109
760.0	7.219
761.0	6.516
762.0	7.500
763.0	6.963
764.0	8.059
765.0	6.076
766.0	8.000
767.0	6.617
768.0	6.400
769.0	6.713
770.0	8.126
771.0	10.72
772.0	4.753
773.0	4.500
774.0	6.029
775.0	6.410
776.0	8.467
777.0	6.090
778.0	7.663
779.0	7.847
780.0	4.710

Sample:	'wa-13(EM)
File name:	10.FDS
Run Date:	'17:03:14, 07/11/2024
Operator:	WXH
Comment:	'

Instrument
Model:	F-4600 FL Spectrophotometer
Serial Number:	3080-002
ROM Version:	5J24000 02

Instrument Parameters
Measurement type:	Wavelength scan
Scan mode:	Emission
Data mode:	Fluorescence
EX WL:	460.0 nm
EM  Start WL:	480.0 nm
EM  End WL:	780.0 nm
Scan speed:	1200 nm/min
Delay:	0.0 s
EX Slit:	2.5 nm
EM Slit:	2.5 nm
PMT Voltage:	600 V
Response:	Auto 
Corrected spectra:	Off
Shutter control:	On

Peak integration
Integration method:	Rectangular
Sensitivity:	1
Threshold:	1.000

Peaks
No.	Valley(nm)	Valley(Data)
1	488.0	58.43
2	511.2	375.6
3	514.8	387.2
4	516.4	395.7
5	517.8	401.7
6	520.2	398.4
7	523.6	385.1
8	526.6	383.2
9	528.6	357.8
10	534.4	346.6
11	536.0	337.3
12	538.8	348.6
13	542.0	323.5
14	546.8	314.3
15	560.2	252.3
16	564.8	224.2
17	569.8	195.0
18	576.6	167.1
19	581.6	140.9
20	591.0	111.7
21	594.2	105.7
22	600.2	95.19
23	605.2	77.45
24	610.8	73.01
25	612.0	67.50
26	614.2	62.44
27	616.4	58.56
28	622.0	48.97
29	625.0	43.32
30	629.6	37.03
31	633.2	34.66
32	635.4	34.69
33	639.8	27.29
34	643.0	28.79
35	644.8	27.75
36	647.6	20.29
37	650.4	19.81
38	653.0	21.29
39	655.6	14.17
40	657.4	15.74
41	662.2	14.12
42	664.6	13.82
43	669.6	10.98
44	671.0	10.96
45	676.4	9.674
46	677.8	9.953
47	679.6	11.64
48	683.8	11.13
49	688.2	8.048
50	693.2	7.415
51	696.2	8.707
52	697.6	8.315
53	701.6	7.905
54	706.8	5.924
55	708.6	7.057
56	709.8	7.059
57	715.0	6.384
58	716.8	8.453
59	719.4	5.121
60	721.0	5.816
61	723.6	8.251
62	726.0	3.655
63	729.6	3.203
64	734.0	6.332
65	737.8	5.304
66	743.6	5.259
67	748.4	6.061
68	751.0	4.688
69	755.4	5.259
70	759.2	3.639
71	764.0	5.373
72	767.4	6.321
73	772.4	4.855
74	776.6	4.403
75	780.0	6.618

Data Points
nm	Data
480.0	21.75
481.0	23.25
482.0	23.22
483.0	26.17
484.0	32.70
485.0	35.61
486.0	50.11
487.0	59.06
488.0	58.43
489.0	62.97
490.0	75.04
491.0	83.93
492.0	107.4
493.0	120.7
494.0	142.7
495.0	154.8
496.0	163.0
497.0	179.3
498.0	192.6
499.0	217.5
500.0	246.3
501.0	246.2
502.0	276.8
503.0	302.1
504.0	297.1
505.0	318.4
506.0	326.6
507.0	355.0
508.0	364.9
509.0	378.7
510.0	390.2
511.0	384.4
512.0	401.0
513.0	404.9
514.0	408.5
515.0	405.9
516.0	407.9
517.0	420.0
518.0	406.6
519.0	438.4
520.0	406.2
521.0	412.6
522.0	416.4
523.0	411.9
524.0	391.2
525.0	398.8
526.0	400.5
527.0	406.5
528.0	378.9
529.0	365.2
530.0	365.6
531.0	372.5
532.0	380.0
533.0	373.1
534.0	346.8
535.0	358.3
536.0	337.3
537.0	355.1
538.0	370.6
539.0	349.3
540.0	348.7
541.0	343.6
542.0	323.5
543.0	337.8
544.0	347.7
545.0	326.9
546.0	325.2
547.0	316.6
548.0	326.6
549.0	326.2
550.0	323.4
551.0	320.8
552.0	300.4
553.0	315.0
554.0	312.3
555.0	302.0
556.0	298.1
557.0	291.8
558.0	284.5
559.0	268.0
560.0	258.3
561.0	266.1
562.0	247.0
563.0	246.2
564.0	228.2
565.0	226.6
566.0	250.9
567.0	239.9
568.0	233.2
569.0	224.3
570.0	201.7
571.0	209.4
572.0	190.4
573.0	201.5
574.0	187.3
575.0	192.3
576.0	183.1
577.0	170.9
578.0	190.0
579.0	163.7
580.0	159.0
581.0	144.6
582.0	157.0
583.0	150.0
584.0	148.7
585.0	159.5
586.0	138.0
587.0	131.0
588.0	128.4
589.0	133.6
590.0	130.1
591.0	111.7
592.0	121.6
593.0	115.8
594.0	109.9
595.0	114.8
596.0	122.1
597.0	99.80
598.0	99.51
599.0	99.55
600.0	97.53
601.0	101.7
602.0	92.93
603.0	94.43
604.0	90.95
605.0	77.55
606.0	89.28
607.0	84.10
608.0	73.54
609.0	81.31
610.0	77.62
611.0	77.55
612.0	67.50
613.0	79.61
614.0	67.00
615.0	73.17
616.0	66.11
617.0	65.04
618.0	63.62
619.0	61.34
620.0	60.99
621.0	54.65
622.0	48.97
623.0	52.93
624.0	59.11
625.0	43.32
626.0	52.54
627.0	53.02
628.0	45.81
629.0	39.40
630.0	41.55
631.0	44.98
632.0	39.88
633.0	36.44
634.0	36.99
635.0	41.27
636.0	38.59
637.0	41.73
638.0	37.21
639.0	35.19
640.0	29.70
641.0	30.26
642.0	29.96
643.0	28.79
644.0	30.16
645.0	27.81
646.0	31.16
647.0	23.97
648.0	26.26
649.0	27.52
650.0	26.84
651.0	26.13
652.0	24.54
653.0	21.29
654.0	23.92
655.0	19.17
656.0	18.09
657.0	17.58
658.0	16.25
659.0	20.92
660.0	19.63
661.0	17.84
662.0	15.45
663.0	21.11
664.0	16.79
665.0	20.74
666.0	19.38
667.0	16.44
668.0	15.92
669.0	11.44
670.0	16.25
671.0	10.96
672.0	16.04
673.0	17.63
674.0	15.80
675.0	14.18
676.0	11.48
677.0	13.21
678.0	10.66
679.0	14.82
680.0	12.40
681.0	11.95
682.0	13.89
683.0	12.81
684.0	13.10
685.0	12.96
686.0	13.03
687.0	13.14
688.0	9.847
689.0	11.39
690.0	13.22
691.0	12.86
692.0	13.39
693.0	8.840
694.0	7.675
695.0	11.97
696.0	10.31
697.0	10.50
698.0	8.777
699.0	9.366
700.0	10.12
701.0	10.06
702.0	10.53
703.0	12.77
704.0	9.032
705.0	7.485
706.0	10.05
707.0	10.62
708.0	10.63
709.0	12.32
710.0	8.597
711.0	9.192
712.0	11.27
713.0	7.611
714.0	8.666
715.0	6.384
716.0	12.22
717.0	8.927
718.0	10.79
719.0	8.235
720.0	7.167
721.0	5.816
722.0	9.541
723.0	8.544
724.0	8.524
725.0	10.01
726.0	3.655
727.0	5.424
728.0	10.67
729.0	8.577
730.0	6.485
731.0	8.978
732.0	8.812
733.0	7.532
734.0	6.332
735.0	9.678
736.0	8.963
737.0	7.416
738.0	6.572
739.0	8.536
740.0	9.082
741.0	9.287
742.0	5.474
743.0	7.083
744.0	6.246
745.0	10.45
746.0	7.647
747.0	10.40
748.0	7.804
749.0	8.536
750.0	6.815
751.0	4.688
752.0	6.718
753.0	9.306
754.0	5.494
755.0	5.392
756.0	10.67
757.0	10.69
758.0	10.13
759.0	6.421
760.0	8.697
761.0	8.429
762.0	9.087
763.0	6.438
764.0	5.373
765.0	9.273
766.0	7.901
767.0	9.261
768.0	9.700
769.0	7.073
770.0	10.43
771.0	12.58
772.0	4.963
773.0	5.936
774.0	9.186
775.0	10.16
776.0	5.265
777.0	6.430
778.0	11.79
779.0	10.23
780.0	6.618

Sample:	'wa-14(EM)
File name:	10.FDS
Run Date:	'17:03:45, 07/11/2024
Operator:	WXH
Comment:	'

Instrument
Model:	F-4600 FL Spectrophotometer
Serial Number:	3080-002
ROM Version:	5J24000 02

Instrument Parameters
Measurement type:	Wavelength scan
Scan mode:	Emission
Data mode:	Fluorescence
EX WL:	460.0 nm
EM  Start WL:	480.0 nm
EM  End WL:	780.0 nm
Scan speed:	1200 nm/min
Delay:	0.0 s
EX Slit:	2.5 nm
EM Slit:	2.5 nm
PMT Voltage:	600 V
Response:	Auto 
Corrected spectra:	Off
Shutter control:	On

Peak integration
Integration method:	Rectangular
Sensitivity:	1
Threshold:	1.000

Peaks
No.	Valley(nm)	Valley(Data)
1	506.4	330.9
2	514.6	403.9
3	517.4	406.5
4	520.2	395.0
5	523.0	371.5
6	524.4	393.6
7	527.0	380.6
8	530.2	355.1
9	534.4	336.5
10	536.4	345.1
11	540.6	325.6
12	543.0	322.1
13	548.4	313.1
14	550.0	311.5
15	554.0	282.5
16	560.2	248.6
17	564.0	241.8
18	573.4	176.9
19	578.4	158.9
20	583.6	141.0
21	589.4	114.8
22	592.4	113.4
23	599.4	88.29
24	602.8	96.83
25	607.0	75.52
26	611.4	70.64
27	617.6	53.29
28	625.0	50.47
29	627.4	44.77
30	633.0	32.32
31	635.6	33.82
32	638.8	24.34
33	644.6	23.83
34	648.2	27.19
35	650.4	25.90
36	652.0	22.84
37	655.8	18.76
38	658.0	18.91
39	659.6	15.67
40	665.4	12.67
41	669.2	11.41
42	672.2	11.45
43	674.2	14.59
44	678.0	10.01
45	680.0	11.71
46	684.0	10.84
47	688.0	10.73
48	691.0	8.967
49	693.0	7.028
50	695.6	9.714
51	699.0	9.592
52	702.0	7.726
53	703.8	9.233
54	706.6	7.546
55	708.2	8.569
56	710.8	9.855
57	713.6	5.718
58	716.8	6.420
59	719.2	5.337
60	722.2	4.365
61	727.0	6.041
62	729.6	5.049
63	731.4	5.813
64	737.4	5.975
65	740.4	6.435
66	742.0	5.744
67	746.0	5.415
68	748.0	5.569
69	751.2	4.928
70	754.2	5.002
71	759.2	5.669
72	763.0	5.705
73	765.0	5.586
74	769.0	5.457
75	774.8	2.968
76	776.8	6.888
77	780.0	7.078

Data Points
nm	Data
480.0	30.60
481.0	25.18
482.0	24.49
483.0	27.70
484.0	31.19
485.0	35.01
486.0	35.43
487.0	38.54
488.0	57.36
489.0	64.04
490.0	83.34
491.0	91.61
492.0	105.5
493.0	118.6
494.0	140.9
495.0	139.3
496.0	161.1
497.0	181.6
498.0	202.6
499.0	214.3
500.0	219.3
501.0	247.3
502.0	287.7
503.0	308.9
504.0	302.2
505.0	308.8
506.0	337.8
507.0	335.9
508.0	347.7
509.0	363.3
510.0	365.0
511.0	396.8
512.0	408.3
513.0	393.7
514.0	430.5
515.0	406.7
516.0	415.1
517.0	417.9
518.0	424.3
519.0	414.1
520.0	395.9
521.0	406.9
522.0	412.8
523.0	371.5
524.0	399.3
525.0	400.4
526.0	403.5
527.0	380.6
528.0	387.4
529.0	369.8
530.0	360.3
531.0	376.8
532.0	370.2
533.0	373.6
534.0	356.2
535.0	347.4
536.0	357.1
537.0	353.1
538.0	356.2
539.0	354.4
540.0	336.0
541.0	328.5
542.0	349.8
543.0	322.1
544.0	349.8
545.0	330.1
546.0	326.6
547.0	328.4
548.0	321.6
549.0	324.6
550.0	311.5
551.0	332.3
552.0	300.5
553.0	285.1
554.0	282.5
555.0	299.4
556.0	293.8
557.0	268.8
558.0	282.7
559.0	267.9
560.0	260.4
561.0	254.1
562.0	250.4
563.0	256.2
564.0	241.8
565.0	255.7
566.0	231.5
567.0	236.2
568.0	230.7
569.0	235.1
570.0	207.1
571.0	203.2
572.0	178.0
573.0	190.8
574.0	204.1
575.0	186.8
576.0	177.0
577.0	183.8
578.0	161.0
579.0	178.5
580.0	168.1
581.0	163.9
582.0	154.7
583.0	143.4
584.0	147.9
585.0	149.7
586.0	148.0
587.0	132.1
588.0	130.6
589.0	119.3
590.0	122.3
591.0	121.1
592.0	116.1
593.0	123.0
594.0	110.9
595.0	113.8
596.0	116.0
597.0	108.3
598.0	106.1
599.0	98.53
600.0	101.2
601.0	98.90
602.0	105.7
603.0	97.32
604.0	98.16
605.0	98.24
606.0	93.70
607.0	75.52
608.0	83.49
609.0	86.40
610.0	80.66
611.0	71.69
612.0	81.70
613.0	77.12
614.0	67.15
615.0	67.32
616.0	64.46
617.0	62.37
618.0	56.11
619.0	61.19
620.0	62.30
621.0	60.95
622.0	62.34
623.0	54.70
624.0	52.90
625.0	50.47
626.0	55.88
627.0	50.20
628.0	50.09
629.0	45.55
630.0	49.81
631.0	41.61
632.0	46.62
633.0	32.32
634.0	49.02
635.0	38.05
636.0	38.33
637.0	41.94
638.0	36.53
639.0	25.56
640.0	37.87
641.0	34.05
642.0	30.97
643.0	25.93
644.0	25.66
645.0	25.42
646.0	35.38
647.0	30.78
648.0	28.76
649.0	30.67
650.0	31.16
651.0	31.59
652.0	22.84
653.0	27.09
654.0	26.42
655.0	20.97
656.0	19.94
657.0	22.55
658.0	18.91
659.0	24.10
660.0	23.01
661.0	20.20
662.0	22.25
663.0	27.61
664.0	20.66
665.0	16.45
666.0	16.85
667.0	24.01
668.0	17.17
669.0	15.15
670.0	17.69
671.0	16.60
672.0	12.89
673.0	16.44
674.0	18.11
675.0	17.23
676.0	18.01
677.0	14.32
678.0	10.01
679.0	18.48
680.0	11.71
681.0	14.32
682.0	16.57
683.0	13.42
684.0	10.84
685.0	15.78
686.0	15.72
687.0	12.54
688.0	10.73
689.0	13.32
690.0	9.563
691.0	8.967
692.0	11.83
693.0	7.028
694.0	12.06
695.0	12.74
696.0	11.91
697.0	14.89
698.0	11.26
699.0	9.592
700.0	11.41
701.0	14.20
702.0	7.726
703.0	12.07
704.0	10.20
705.0	13.95
706.0	9.240
707.0	10.66
708.0	9.376
709.0	10.71
710.0	12.40
711.0	10.40
712.0	10.95
713.0	9.251
714.0	6.983
715.0	11.40
716.0	9.045
717.0	8.902
718.0	10.22
719.0	6.432
720.0	5.796
721.0	8.134
722.0	5.798
723.0	7.734
724.0	11.79
725.0	8.463
726.0	11.38
727.0	6.041
728.0	8.605
729.0	9.033
730.0	9.511
731.0	5.992
732.0	7.609
733.0	9.849
734.0	6.740
735.0	9.733
736.0	10.45
737.0	6.586
738.0	9.278
739.0	11.96
740.0	8.695
741.0	8.326
742.0	5.744
743.0	9.159
744.0	9.208
745.0	7.134
746.0	5.415
747.0	8.800
748.0	5.569
749.0	6.986
750.0	8.246
751.0	5.513
752.0	9.469
753.0	9.929
754.0	6.965
755.0	6.597
756.0	6.748
757.0	8.884
758.0	10.66
759.0	8.230
760.0	8.083
761.0	8.180
762.0	10.48
763.0	5.705
764.0	8.738
765.0	5.586
766.0	8.495
767.0	10.09
768.0	5.164
769.0	5.457
770.0	7.626
771.0	8.051
772.0	9.005
773.0	8.100
774.0	4.784
775.0	4.873
776.0	11.00
777.0	8.050
778.0	9.537
779.0	6.653
780.0	7.078

Sample:	'wa-15(EM)
File name:	10.FDS
Run Date:	'17:04:15, 07/11/2024
Operator:	WXH
Comment:	'

Instrument
Model:	F-4600 FL Spectrophotometer
Serial Number:	3080-002
ROM Version:	5J24000 02

Instrument Parameters
Measurement type:	Wavelength scan
Scan mode:	Emission
Data mode:	Fluorescence
EX WL:	460.0 nm
EM  Start WL:	480.0 nm
EM  End WL:	780.0 nm
Scan speed:	1200 nm/min
Delay:	0.0 s
EX Slit:	2.5 nm
EM Slit:	2.5 nm
PMT Voltage:	600 V
Response:	Auto 
Corrected spectra:	Off
Shutter control:	On

Peak integration
Integration method:	Rectangular
Sensitivity:	1
Threshold:	1.000

Peaks
No.	Valley(nm)	Valley(Data)
1	487.0	41.00
2	506.8	325.5
3	509.2	359.6
4	514.2	389.3
5	516.6	390.6
6	517.8	382.8
7	522.0	390.8
8	526.6	361.5
9	530.4	342.7
10	534.2	335.8
11	542.0	321.0
12	543.6	323.6
13	548.8	298.1
14	551.8	300.9
15	553.2	279.7
16	560.6	256.2
17	564.8	227.8
18	569.6	193.2
19	576.0	176.1
20	579.0	153.9
21	583.2	134.1
22	586.6	128.4
23	590.0	112.3
24	594.4	103.2
25	596.0	104.0
26	610.4	72.18
27	615.8	55.10
28	617.4	61.88
29	626.8	46.14
30	630.4	43.30
31	634.8	33.81
32	638.4	28.55
33	643.6	25.31
34	646.4	21.15
35	648.6	24.08
36	652.6	24.25
37	655.2	22.39
38	656.8	16.80
39	666.4	14.80
40	670.0	13.51
41	672.2	13.73
42	675.6	10.87
43	677.6	11.01
44	681.0	11.01
45	682.8	11.47
46	686.0	11.98
47	688.8	8.389
48	689.8	6.883
49	693.8	9.080
50	696.2	9.641
51	699.8	8.624
52	702.8	7.805
53	705.0	6.950
54	709.6	8.481
55	713.0	6.978
56	715.6	5.741
57	718.0	4.884
58	722.0	6.269
59	723.6	7.603
60	726.6	7.847
61	728.6	6.597
62	731.8	5.817
63	736.2	5.421
64	742.6	7.616
65	745.6	7.022
66	747.8	5.432
67	752.0	5.352
68	753.4	4.232
69	758.2	5.167
70	759.6	4.106
71	762.2	6.226
72	763.4	6.480
73	766.2	5.666
74	769.2	5.290
75	772.2	3.923
76	775.4	4.507
77	777.4	4.855

Data Points
nm	Data
480.0	25.84
481.0	20.07
482.0	26.53
483.0	26.33
484.0	30.13
485.0	43.32
486.0	47.89
487.0	41.00
488.0	59.11
489.0	72.23
490.0	75.81
491.0	91.85
492.0	103.3
493.0	119.2
494.0	130.6
495.0	150.9
496.0	161.6
497.0	185.9
498.0	205.1
499.0	220.4
500.0	237.1
501.0	237.6
502.0	267.9
503.0	284.8
504.0	297.5
505.0	313.3
506.0	343.3
507.0	339.9
508.0	368.3
509.0	365.3
510.0	388.0
511.0	392.1
512.0	395.8
513.0	405.3
514.0	409.5
515.0	419.9
516.0	401.6
517.0	399.3
518.0	389.3
519.0	405.9
520.0	416.9
521.0	408.7
522.0	390.8
523.0	400.4
524.0	403.1
525.0	388.6
526.0	374.1
527.0	383.0
528.0	392.5
529.0	357.1
530.0	363.3
531.0	352.4
532.0	369.5
533.0	357.8
534.0	355.9
535.0	355.0
536.0	349.2
537.0	346.1
538.0	354.9
539.0	348.0
540.0	332.1
541.0	329.0
542.0	321.0
543.0	338.7
544.0	341.5
545.0	326.8
546.0	341.1
547.0	324.1
548.0	306.3
549.0	306.2
550.0	293.4
551.0	312.4
552.0	312.8
553.0	284.9
554.0	304.4
555.0	305.1
556.0	293.9
557.0	299.4
558.0	276.7
559.0	287.0
560.0	260.0
561.0	264.8
562.0	251.9
563.0	247.1
564.0	229.7
565.0	241.8
566.0	236.8
567.0	245.5
568.0	228.0
569.0	205.6
570.0	213.1
571.0	233.0
572.0	202.1
573.0	204.3
574.0	195.5
575.0	189.1
576.0	176.1
577.0	192.3
578.0	162.1
579.0	153.9
580.0	164.4
581.0	159.4
582.0	176.5
583.0	137.8
584.0	142.3
585.0	142.8
586.0	136.6
587.0	130.1
588.0	137.6
589.0	124.1
590.0	112.3
591.0	117.4
592.0	122.2
593.0	122.6
594.0	109.3
595.0	115.9
596.0	104.0
597.0	108.1
598.0	107.3
599.0	116.0
600.0	97.37
601.0	98.80
602.0	93.87
603.0	89.79
604.0	88.55
605.0	87.25
606.0	80.41
607.0	82.06
608.0	76.75
609.0	82.88
610.0	80.52
611.0	72.59
612.0	76.29
613.0	76.26
614.0	70.99
615.0	61.25
616.0	69.08
617.0	62.35
618.0	64.80
619.0	65.39
620.0	57.14
621.0	52.06
622.0	52.98
623.0	48.89
624.0	49.18
625.0	50.09
626.0	48.56
627.0	48.49
628.0	51.53
629.0	51.06
630.0	44.47
631.0	48.88
632.0	43.62
633.0	44.14
634.0	34.01
635.0	39.53
636.0	34.76
637.0	34.60
638.0	29.99
639.0	32.25
640.0	34.33
641.0	30.27
642.0	31.96
643.0	31.31
644.0	28.68
645.0	29.27
646.0	25.30
647.0	29.44
648.0	28.79
649.0	30.36
650.0	35.44
651.0	30.26
652.0	23.89
653.0	27.05
654.0	30.89
655.0	25.36
656.0	25.88
657.0	21.12
658.0	22.44
659.0	22.92
660.0	25.34
661.0	23.00
662.0	25.44
663.0	23.63
664.0	21.25
665.0	19.81
666.0	17.38
667.0	21.31
668.0	17.83
669.0	13.70
670.0	13.51
671.0	19.89
672.0	14.50
673.0	18.67
674.0	15.26
675.0	14.37
676.0	13.12
677.0	12.64
678.0	12.97
679.0	16.44
680.0	15.81
681.0	11.01
682.0	15.61
683.0	14.20
684.0	13.61
685.0	15.84
686.0	11.98
687.0	13.99
688.0	9.871
689.0	10.30
690.0	7.544
691.0	16.54
692.0	13.90
693.0	9.551
694.0	9.156
695.0	12.00
696.0	9.668
697.0	10.78
698.0	12.61
699.0	9.148
700.0	8.887
701.0	9.487
702.0	8.787
703.0	9.331
704.0	10.42
705.0	6.950
706.0	11.05
707.0	11.70
708.0	12.71
709.0	10.94
710.0	14.07
711.0	12.05
712.0	8.438
713.0	6.978
714.0	12.09
715.0	9.309
716.0	6.411
717.0	6.918
718.0	4.884
719.0	6.665
720.0	9.015
721.0	7.793
722.0	6.269
723.0	9.754
724.0	9.651
725.0	11.85
726.0	8.877
727.0	8.972
728.0	7.200
729.0	8.975
730.0	7.726
731.0	12.09
732.0	6.893
733.0	7.503
734.0	9.856
735.0	9.546
736.0	6.728
737.0	7.112
738.0	6.714
739.0	7.334
740.0	8.670
741.0	10.16
742.0	8.022
743.0	8.917
744.0	13.17
745.0	8.232
746.0	9.689
747.0	7.630
748.0	5.823
749.0	9.980
750.0	10.04
751.0	7.860
752.0	5.352
753.0	7.762
754.0	7.142
755.0	8.087
756.0	11.76
757.0	10.88
758.0	6.529
759.0	8.303
760.0	5.370
761.0	7.495
762.0	7.092
763.0	9.736
764.0	7.672
765.0	9.466
766.0	6.444
767.0	7.895
768.0	7.271
769.0	6.825
770.0	5.994
771.0	7.405
772.0	5.388
773.0	7.909
774.0	10.77
775.0	7.177
776.0	9.076
777.0	6.034
778.0	9.431
779.0	10.92
780.0	7.542

Sample:	'wa-16(EM)
File name:	10.FDS
Run Date:	'17:04:45, 07/11/2024
Operator:	WXH
Comment:	'

Instrument
Model:	F-4600 FL Spectrophotometer
Serial Number:	3080-002
ROM Version:	5J24000 02

Instrument Parameters
Measurement type:	Wavelength scan
Scan mode:	Emission
Data mode:	Fluorescence
EX WL:	460.0 nm
EM  Start WL:	480.0 nm
EM  End WL:	780.0 nm
Scan speed:	1200 nm/min
Delay:	0.0 s
EX Slit:	2.5 nm
EM Slit:	2.5 nm
PMT Voltage:	600 V
Response:	Auto 
Corrected spectra:	Off
Shutter control:	On

Peak integration
Integration method:	Rectangular
Sensitivity:	1
Threshold:	1.000

Peaks
No.	Valley(nm)	Valley(Data)
1	517.0	378.2
2	520.2	376.3
3	521.4	392.8
4	527.0	360.8
5	528.8	357.2
6	536.6	327.6
7	539.2	331.6
8	541.2	336.0
9	543.4	322.7
10	547.4	313.5
11	552.2	279.7
12	556.6	263.8
13	567.0	220.2
14	570.0	197.6
15	575.0	173.3
16	578.0	154.2
17	582.0	154.5
18	585.0	127.4
19	588.2	114.6
20	590.4	114.6
21	593.6	109.4
22	600.0	79.84
23	604.0	82.08
24	606.6	77.15
25	609.2	67.83
26	611.8	69.07
27	617.2	56.76
28	621.0	50.90
29	622.8	52.99
30	624.2	49.07
31	626.4	49.88
32	634.8	39.56
33	641.4	29.24
34	644.4	25.78
35	649.6	18.33
36	653.6	20.41
37	660.4	19.22
38	662.8	14.49
39	667.6	11.71
40	670.8	12.92
41	674.2	10.88
42	676.0	10.33
43	680.4	10.28
44	685.4	8.708
45	688.4	7.265
46	690.8	9.578
47	696.6	9.321
48	698.0	7.527
49	699.6	5.645
50	704.0	9.207
51	708.6	7.572
52	711.0	7.926
53	714.2	6.633
54	718.6	6.632
55	720.8	6.275
56	723.4	5.882
57	726.0	4.407
58	731.6	4.828
59	733.4	5.763
60	735.8	5.830
61	739.0	5.464
62	741.8	8.144
63	744.0	5.102
64	746.2	2.059
65	752.2	4.111
66	754.6	5.177
67	756.6	6.341
68	759.2	4.476
69	763.4	5.334
70	766.0	5.946
71	770.6	6.201
72	772.0	5.589
73	775.2	4.840
74	776.6	4.130
75	778.6	4.180

Data Points
nm	Data
480.0	15.72
481.0	19.58
482.0	24.09
483.0	27.50
484.0	30.90
485.0	39.04
486.0	46.23
487.0	46.38
488.0	62.21
489.0	63.09
490.0	76.67
491.0	96.86
492.0	103.1
493.0	119.4
494.0	126.3
495.0	146.1
496.0	175.4
497.0	172.7
498.0	205.4
499.0	212.5
500.0	238.4
501.0	234.5
502.0	266.0
503.0	263.3
504.0	310.6
505.0	330.7
506.0	330.5
507.0	346.9
508.0	373.8
509.0	374.4
510.0	379.8
511.0	392.3
512.0	412.6
513.0	390.8
514.0	413.0
515.0	409.5
516.0	405.1
517.0	378.2
518.0	413.5
519.0	406.6
520.0	382.3
521.0	403.7
522.0	394.0
523.0	398.2
524.0	413.4
525.0	401.6
526.0	393.3
527.0	360.8
528.0	387.0
529.0	362.7
530.0	370.6
531.0	378.1
532.0	360.8
533.0	340.8
534.0	361.1
535.0	352.5
536.0	348.5
537.0	349.0
538.0	343.8
539.0	341.2
540.0	341.0
541.0	342.9
542.0	347.9
543.0	340.6
544.0	327.7
545.0	351.8
546.0	324.5
547.0	313.8
548.0	320.8
549.0	335.2
550.0	320.7
551.0	306.7
552.0	286.9
553.0	311.0
554.0	290.7
555.0	279.7
556.0	276.0
557.0	282.8
558.0	282.6
559.0	278.2
560.0	272.4
561.0	270.0
562.0	264.2
563.0	239.7
564.0	252.5
565.0	248.5
566.0	242.1
567.0	220.2
568.0	235.4
569.0	211.8
570.0	197.6
571.0	208.8
572.0	200.2
573.0	205.5
574.0	175.3
575.0	173.3
576.0	182.0
577.0	193.0
578.0	154.2
579.0	169.1
580.0	171.9
581.0	175.6
582.0	154.5
583.0	169.1
584.0	153.0
585.0	127.4
586.0	138.3
587.0	135.6
588.0	121.8
589.0	126.1
590.0	115.2
591.0	127.8
592.0	114.5
593.0	116.7
594.0	115.2
595.0	113.2
596.0	110.6
597.0	109.0
598.0	111.3
599.0	96.73
600.0	79.84
601.0	97.70
602.0	112.5
603.0	96.25
604.0	82.08
605.0	89.12
606.0	88.23
607.0	78.14
608.0	87.57
609.0	73.37
610.0	78.77
611.0	89.81
612.0	70.45
613.0	69.73
614.0	68.95
615.0	71.15
616.0	68.16
617.0	62.19
618.0	64.76
619.0	69.06
620.0	64.47
621.0	50.90
622.0	60.06
623.0	53.32
624.0	53.50
625.0	56.59
626.0	52.25
627.0	57.27
628.0	53.89
629.0	57.19
630.0	51.17
631.0	47.30
632.0	48.14
633.0	39.87
634.0	41.26
635.0	43.74
636.0	37.15
637.0	46.84
638.0	39.25
639.0	33.11
640.0	35.43
641.0	33.10
642.0	33.90
643.0	34.98
644.0	29.18
645.0	34.31
646.0	29.70
647.0	27.16
648.0	30.05
649.0	22.35
650.0	19.60
651.0	29.11
652.0	27.07
653.0	22.62
654.0	20.65
655.0	24.87
656.0	26.17
657.0	26.17
658.0	25.10
659.0	21.89
660.0	19.89
661.0	21.70
662.0	22.05
663.0	18.82
664.0	23.53
665.0	19.56
666.0	15.72
667.0	12.30
668.0	16.53
669.0	17.18
670.0	16.49
671.0	17.01
672.0	16.03
673.0	11.78
674.0	12.77
675.0	14.45
676.0	10.33
677.0	15.82
678.0	10.81
679.0	14.23
680.0	12.31
681.0	13.49
682.0	15.87
683.0	13.72
684.0	11.42
685.0	13.27
686.0	10.41
687.0	13.06
688.0	10.81
689.0	11.19
690.0	13.51
691.0	10.41
692.0	9.631
693.0	13.41
694.0	13.72
695.0	10.37
696.0	9.905
697.0	12.63
698.0	7.527
699.0	10.54
700.0	7.572
701.0	9.484
702.0	12.82
703.0	12.29
704.0	9.207
705.0	12.05
706.0	14.09
707.0	9.346
708.0	8.461
709.0	8.257
710.0	11.80
711.0	7.926
712.0	9.512
713.0	8.149
714.0	7.472
715.0	11.39
716.0	9.075
717.0	13.33
718.0	10.45
719.0	7.112
720.0	10.30
721.0	6.478
722.0	9.710
723.0	8.555
724.0	6.499
725.0	7.711
726.0	4.407
727.0	7.919
728.0	8.460
729.0	12.06
730.0	8.098
731.0	11.75
732.0	7.260
733.0	8.525
734.0	6.835
735.0	9.533
736.0	8.152
737.0	7.302
738.0	8.024
739.0	5.464
740.0	9.679
741.0	8.713
742.0	9.865
743.0	11.04
744.0	5.102
745.0	8.503
746.0	2.678
747.0	4.426
748.0	5.998
749.0	8.003
750.0	6.109
751.0	7.219
752.0	5.109
753.0	8.271
754.0	6.814
755.0	7.849
756.0	6.557
757.0	8.188
758.0	12.08
759.0	6.934
760.0	6.778
761.0	8.248
762.0	6.738
763.0	6.809
764.0	8.184
765.0	7.909
766.0	5.946
767.0	8.803
768.0	6.767
769.0	8.862
770.0	6.981
771.0	9.928
772.0	5.589
773.0	7.993
774.0	5.372
775.0	5.304
776.0	5.485
777.0	4.554
778.0	7.063
779.0	4.582
780.0	12.15

Sample:	'wa-17(EM)
File name:	10.FDS
Run Date:	'17:05:15, 07/11/2024
Operator:	WXH
Comment:	'

Instrument
Model:	F-4600 FL Spectrophotometer
Serial Number:	3080-002
ROM Version:	5J24000 02

Instrument Parameters
Measurement type:	Wavelength scan
Scan mode:	Emission
Data mode:	Fluorescence
EX WL:	460.0 nm
EM  Start WL:	480.0 nm
EM  End WL:	780.0 nm
Scan speed:	1200 nm/min
Delay:	0.0 s
EX Slit:	2.5 nm
EM Slit:	2.5 nm
PMT Voltage:	600 V
Response:	Auto 
Corrected spectra:	Off
Shutter control:	On

Peak integration
Integration method:	Rectangular
Sensitivity:	1
Threshold:	1.000

Peaks
No.	Valley(nm)	Valley(Data)
1	485.0	37.34
2	511.8	383.0
3	514.6	392.6
4	517.8	391.2
5	518.8	398.7
6	522.6	375.7
7	531.2	356.2
8	533.4	341.0
9	536.6	336.4
10	540.0	335.6
11	542.2	311.0
12	545.4	312.6
13	548.2	309.5
14	550.4	295.0
15	553.0	282.1
16	555.6	277.0
17	562.4	229.6
18	564.4	235.4
19	569.2	202.7
20	572.2	191.7
21	574.4	174.5
22	584.0	140.6
23	588.6	120.7
24	590.2	119.1
25	595.4	106.5
26	599.6	99.95
27	602.2	87.51
28	605.0	81.60
29	608.8	69.78
30	613.2	69.44
31	618.0	58.79
32	621.8	49.92
33	626.4	47.22
34	630.2	34.88
35	633.6	33.49
36	637.6	34.00
37	641.6	29.16
38	643.4	22.74
39	648.2	24.99
40	652.0	18.22
41	656.0	17.27
42	658.8	18.25
43	661.6	15.78
44	667.0	13.72
45	671.8	16.60
46	675.0	11.18
47	676.6	11.55
48	680.6	11.53
49	682.6	8.570
50	684.2	9.733
51	687.6	6.867
52	690.8	7.520
53	695.4	10.19
54	697.0	9.090
55	701.0	7.839
56	703.8	8.410
57	705.8	8.874
58	708.0	6.420
59	711.2	7.300
60	713.8	9.998
61	716.4	5.581
62	722.4	5.552
63	724.6	4.910
64	728.2	7.131
65	730.6	6.557
66	734.6	6.342
67	736.4	6.753
68	740.0	3.956
69	742.8	5.287
70	746.2	4.991
71	749.2	5.420
72	754.8	5.647
73	758.6	7.227
74	762.8	4.125
75	766.0	5.446
76	772.2	5.143
77	775.2	4.578
78	777.0	5.557
79	780.0	6.734

Data Points
nm	Data
480.0	23.20
481.0	21.75
482.0	30.53
483.0	28.21
484.0	37.61
485.0	37.34
486.0	43.18
487.0	53.29
488.0	54.46
489.0	63.58
490.0	63.45
491.0	83.31
492.0	102.4
493.0	115.3
494.0	130.4
495.0	140.3
496.0	154.1
497.0	179.0
498.0	201.0
499.0	206.5
500.0	241.2
501.0	255.6
502.0	262.5
503.0	288.3
504.0	289.5
505.0	313.7
506.0	330.5
507.0	353.1
508.0	354.9
509.0	357.0
510.0	368.3
511.0	407.6
512.0	390.7
513.0	421.5
514.0	396.1
515.0	403.5
516.0	400.0
517.0	405.0
518.0	399.6
519.0	413.7
520.0	422.7
521.0	402.7
522.0	403.6
523.0	381.1
524.0	409.8
525.0	388.2
526.0	377.7
527.0	386.8
528.0	390.3
529.0	363.6
530.0	360.9
531.0	357.8
532.0	378.4
533.0	358.2
534.0	356.8
535.0	348.3
536.0	362.8
537.0	347.4
538.0	351.4
539.0	354.6
540.0	335.6
541.0	350.0
542.0	322.3
543.0	328.9
544.0	335.2
545.0	322.4
546.0	335.7
547.0	319.0
548.0	315.4
549.0	314.4
550.0	318.9
551.0	321.8
552.0	307.8
553.0	282.1
554.0	297.7
555.0	303.3
556.0	281.5
557.0	297.6
558.0	286.2
559.0	282.2
560.0	261.3
561.0	268.6
562.0	253.9
563.0	247.7
564.0	243.4
565.0	256.9
566.0	232.5
567.0	235.0
568.0	224.8
569.0	204.2
570.0	218.5
571.0	202.9
572.0	200.6
573.0	216.5
574.0	191.1
575.0	182.2
576.0	194.4
577.0	187.9
578.0	175.2
579.0	167.6
580.0	170.8
581.0	165.0
582.0	164.6
583.0	156.3
584.0	140.6
585.0	148.7
586.0	140.4
587.0	133.9
588.0	122.1
589.0	128.1
590.0	126.5
591.0	126.8
592.0	128.9
593.0	123.3
594.0	122.8
595.0	106.8
596.0	111.7
597.0	100.9
598.0	102.4
599.0	101.9
600.0	100.4
601.0	96.01
602.0	91.86
603.0	98.20
604.0	95.76
605.0	81.60
606.0	83.62
607.0	85.19
608.0	88.01
609.0	72.96
610.0	89.43
611.0	82.91
612.0	78.84
613.0	73.05
614.0	84.81
615.0	73.80
616.0	69.43
617.0	69.68
618.0	58.79
619.0	65.59
620.0	59.27
621.0	56.78
622.0	53.17
623.0	60.64
624.0	58.31
625.0	55.05
626.0	49.86
627.0	48.65
628.0	49.24
629.0	44.27
630.0	39.06
631.0	44.43
632.0	46.00
633.0	36.13
634.0	35.79
635.0	44.90
636.0	37.59
637.0	33.17
638.0	36.81
639.0	37.88
640.0	34.09
641.0	33.65
642.0	31.38
643.0	29.72
644.0	27.68
645.0	33.63
646.0	32.18
647.0	29.17
648.0	25.65
649.0	28.81
650.0	24.61
651.0	24.04
652.0	18.22
653.0	27.19
654.0	25.16
655.0	18.36
656.0	17.27
657.0	21.27
658.0	26.62
659.0	23.29
660.0	22.00
661.0	22.35
662.0	16.47
663.0	22.54
664.0	24.57
665.0	19.48
666.0	18.43
667.0	13.72
668.0	17.98
669.0	19.18
670.0	15.88
671.0	17.91
672.0	20.39
673.0	17.08
674.0	13.41
675.0	11.18
676.0	13.76
677.0	15.50
678.0	17.06
679.0	17.24
680.0	15.19
681.0	15.88
682.0	13.99
683.0	10.43
684.0	11.36
685.0	12.15
686.0	12.77
687.0	8.934
688.0	10.28
689.0	11.37
690.0	8.212
691.0	8.632
692.0	9.442
693.0	9.946
694.0	13.23
695.0	12.72
696.0	13.11
697.0	9.090
698.0	12.29
699.0	13.92
700.0	11.25
701.0	7.839
702.0	10.66
703.0	9.554
704.0	8.451
705.0	9.363
706.0	9.199
707.0	11.08
708.0	6.420
709.0	12.00
710.0	7.917
711.0	9.978
712.0	11.51
713.0	12.35
714.0	11.21
715.0	13.33
716.0	7.451
717.0	6.329
718.0	10.29
719.0	10.46
720.0	11.52
721.0	8.926
722.0	6.504
723.0	6.510
724.0	7.282
725.0	9.341
726.0	10.02
727.0	10.45
728.0	8.286
729.0	8.758
730.0	8.996
731.0	11.57
732.0	11.42
733.0	8.403
734.0	8.232
735.0	6.720
736.0	7.396
737.0	10.95
738.0	9.610
739.0	8.017
740.0	3.956
741.0	8.693
742.0	9.362
743.0	6.376
744.0	8.388
745.0	13.12
746.0	7.342
747.0	8.665
748.0	8.090
749.0	5.479
750.0	9.094
751.0	9.115
752.0	10.18
753.0	8.719
754.0	5.998
755.0	6.078
756.0	8.398
757.0	8.420
758.0	8.143
759.0	7.838
760.0	12.41
761.0	6.299
762.0	5.856
763.0	4.626
764.0	5.791
765.0	6.761
766.0	5.446
767.0	8.791
768.0	7.898
769.0	6.592
770.0	5.683
771.0	6.355
772.0	7.110
773.0	9.748
774.0	9.772
775.0	5.895
776.0	6.565
777.0	5.557
778.0	8.281
779.0	6.108
780.0	6.734

Sample:	'wa-18(EM)
File name:	10.FDS
Run Date:	'17:05:46, 07/11/2024
Operator:	WXH
Comment:	'

Instrument
Model:	F-4600 FL Spectrophotometer
Serial Number:	3080-002
ROM Version:	5J24000 02

Instrument Parameters
Measurement type:	Wavelength scan
Scan mode:	Emission
Data mode:	Fluorescence
EX WL:	460.0 nm
EM  Start WL:	480.0 nm
EM  End WL:	780.0 nm
Scan speed:	1200 nm/min
Delay:	0.0 s
EX Slit:	2.5 nm
EM Slit:	2.5 nm
PMT Voltage:	600 V
Response:	Auto 
Corrected spectra:	Off
Shutter control:	On

Peak integration
Integration method:	Rectangular
Sensitivity:	1
Threshold:	1.000

Peaks
No.	Valley(nm)	Valley(Data)
1	513.4	395.9
2	519.8	395.0
3	522.0	388.1
4	527.4	347.2
5	529.8	355.2
6	533.6	351.6
7	539.2	322.0
8	540.8	320.1
9	544.2	326.2
10	546.0	335.8
11	550.0	294.5
12	552.8	273.3
13	556.2	268.8
14	559.2	260.3
15	563.8	233.2
16	566.6	214.9
17	573.0	179.5
18	580.6	146.0
19	586.4	127.9
20	589.6	124.6
21	591.0	118.2
22	593.0	107.8
23	596.6	99.18
24	598.6	93.47
25	601.6	88.53
26	605.4	81.79
27	607.6	76.61
28	612.8	62.71
29	615.2	61.12
30	618.2	54.47
31	622.2	50.20
32	623.8	49.27
33	627.0	47.96
34	629.0	43.87
35	633.4	36.65
36	639.8	28.17
37	641.4	31.42
38	643.6	29.58
39	646.0	24.37
40	648.6	23.79
41	651.2	23.44
42	653.4	21.22
43	655.0	17.44
44	659.2	18.28
45	661.2	15.09
46	662.8	16.58
47	668.8	14.52
48	672.6	12.53
49	675.2	11.15
50	678.8	11.16
51	680.0	8.578
52	683.2	12.66
53	687.4	9.837
54	691.8	8.000
55	695.4	8.673
56	697.6	9.175
57	701.8	11.64
58	703.6	10.11
59	705.8	8.309
60	709.0	7.428
61	711.2	7.693
62	714.0	7.216
63	717.4	6.610
64	720.4	7.458
65	723.0	7.735
66	726.0	6.967
67	727.2	5.482
68	728.6	5.414
69	734.8	3.870
70	736.2	5.256
71	740.8	5.369
72	745.0	3.898
73	750.4	6.554
74	752.2	5.320
75	756.8	4.999
76	758.6	5.941
77	760.2	4.192
78	764.0	4.637
79	767.0	6.623
80	769.4	5.378
81	771.4	4.046
82	774.6	3.193

Data Points
nm	Data
480.0	17.67
481.0	21.06
482.0	23.47
483.0	31.46
484.0	33.45
485.0	36.27
486.0	46.92
487.0	55.05
488.0	65.94
489.0	72.88
490.0	71.52
491.0	90.81
492.0	102.8
493.0	121.3
494.0	126.8
495.0	146.1
496.0	173.6
497.0	199.8
498.0	189.7
499.0	201.0
500.0	244.9
501.0	254.1
502.0	283.1
503.0	290.7
504.0	304.9
505.0	306.3
506.0	320.5
507.0	332.4
508.0	366.4
509.0	367.0
510.0	393.4
511.0	387.9
512.0	392.0
513.0	409.2
514.0	408.0
515.0	414.6
516.0	411.3
517.0	424.7
518.0	402.9
519.0	413.5
520.0	415.5
521.0	403.8
522.0	388.1
523.0	401.1
524.0	407.4
525.0	403.1
526.0	379.5
527.0	359.2
528.0	366.6
529.0	388.3
530.0	359.5
531.0	374.8
532.0	373.3
533.0	359.6
534.0	369.0
535.0	363.4
536.0	336.3
537.0	337.5
538.0	328.7
539.0	331.6
540.0	342.9
541.0	333.1
542.0	343.4
543.0	345.0
544.0	327.1
545.0	353.6
546.0	335.8
547.0	340.6
548.0	327.1
549.0	310.9
550.0	294.5
551.0	302.1
552.0	290.4
553.0	289.6
554.0	290.4
555.0	292.7
556.0	272.8
557.0	276.5
558.0	268.7
559.0	262.5
560.0	280.9
561.0	272.1
562.0	250.1
563.0	233.7
564.0	240.1
565.0	245.1
566.0	222.3
567.0	215.0
568.0	233.6
569.0	217.3
570.0	210.3
571.0	199.6
572.0	195.2
573.0	179.5
574.0	192.5
575.0	175.2
576.0	174.2
577.0	165.9
578.0	156.6
579.0	156.1
580.0	162.8
581.0	163.2
582.0	157.5
583.0	147.8
584.0	143.7
585.0	152.2
586.0	140.2
587.0	142.2
588.0	130.8
589.0	125.9
590.0	137.9
591.0	118.2
592.0	130.9
593.0	107.8
594.0	118.4
595.0	110.6
596.0	111.1
597.0	100.6
598.0	109.3
599.0	97.94
600.0	95.69
601.0	91.33
602.0	99.39
603.0	97.69
604.0	88.86
605.0	82.17
606.0	89.26
607.0	87.45
608.0	81.20
609.0	86.79
610.0	83.73
611.0	85.60
612.0	67.59
613.0	66.15
614.0	70.00
615.0	66.08
616.0	69.40
617.0	66.83
618.0	56.41
619.0	57.94
620.0	64.17
621.0	58.37
622.0	57.74
623.0	57.84
624.0	51.22
625.0	56.95
626.0	52.82
627.0	47.96
628.0	52.54
629.0	43.87
630.0	49.35
631.0	47.55
632.0	40.80
633.0	40.54
634.0	41.17
635.0	45.87
636.0	40.00
637.0	43.98
638.0	40.22
639.0	34.01
640.0	37.53
641.0	39.11
642.0	33.57
643.0	29.67
644.0	38.28
645.0	27.76
646.0	24.37
647.0	27.30
648.0	27.48
649.0	26.31
650.0	27.25
651.0	23.94
652.0	30.28
653.0	23.06
654.0	24.07
655.0	17.44
656.0	21.32
657.0	24.81
658.0	22.29
659.0	18.88
660.0	20.28
661.0	20.19
662.0	20.50
663.0	18.56
664.0	20.32
665.0	17.52
666.0	17.55
667.0	15.60
668.0	15.90
669.0	17.81
670.0	15.04
671.0	16.75
672.0	15.96
673.0	13.65
674.0	13.73
675.0	11.91
676.0	18.42
677.0	12.23
678.0	12.35
679.0	15.05
680.0	8.578
681.0	10.07
682.0	14.20
683.0	13.51
684.0	15.15
685.0	12.16
686.0	10.73
687.0	12.12
688.0	11.74
689.0	9.249
690.0	17.68
691.0	10.91
692.0	8.849
693.0	12.13
694.0	11.31
695.0	10.29
696.0	11.41
697.0	12.33
698.0	11.89
699.0	10.56
700.0	13.36
701.0	13.06
702.0	11.84
703.0	13.53
704.0	14.41
705.0	12.78
706.0	10.57
707.0	11.14
708.0	8.284
709.0	7.428
710.0	11.14
711.0	8.282
712.0	11.67
713.0	8.810
714.0	7.216
715.0	8.895
716.0	13.99
717.0	9.847
718.0	8.156
719.0	9.552
720.0	10.91
721.0	10.34
722.0	10.08
723.0	7.735
724.0	11.33
725.0	8.005
726.0	6.967
727.0	5.783
728.0	10.78
729.0	6.777
730.0	8.869
731.0	5.747
732.0	6.615
733.0	5.654
734.0	4.892
735.0	6.042
736.0	6.920
737.0	6.067
738.0	7.474
739.0	7.938
740.0	6.755
741.0	5.947
742.0	6.890
743.0	6.145
744.0	5.385
745.0	3.898
746.0	7.647
747.0	8.705
748.0	10.36
749.0	7.684
750.0	6.880
751.0	8.055
752.0	6.496
753.0	9.302
754.0	8.247
755.0	8.547
756.0	7.129
757.0	6.892
758.0	6.552
759.0	11.06
760.0	6.069
761.0	4.276
762.0	9.400
763.0	6.871
764.0	4.637
765.0	8.345
766.0	7.852
767.0	6.623
768.0	8.702
769.0	7.902
770.0	8.562
771.0	6.193
772.0	5.819
773.0	8.214
774.0	6.852
775.0	5.391
776.0	4.241
777.0	7.888
778.0	6.571
779.0	6.710
780.0	9.373

Sample:	'wa-19(EM)
File name:	10.FDS
Run Date:	'17:06:16, 07/11/2024
Operator:	WXH
Comment:	'

Instrument
Model:	F-4600 FL Spectrophotometer
Serial Number:	3080-002
ROM Version:	5J24000 02

Instrument Parameters
Measurement type:	Wavelength scan
Scan mode:	Emission
Data mode:	Fluorescence
EX WL:	460.0 nm
EM  Start WL:	480.0 nm
EM  End WL:	780.0 nm
Scan speed:	1200 nm/min
Delay:	0.0 s
EX Slit:	2.5 nm
EM Slit:	2.5 nm
PMT Voltage:	600 V
Response:	Auto 
Corrected spectra:	Off
Shutter control:	On

Peak integration
Integration method:	Rectangular
Sensitivity:	1
Threshold:	1.000

Peaks
No.	Valley(nm)	Valley(Data)
1	504.4	293.4
2	507.4	336.2
3	511.0	375.8
4	514.8	385.0
5	519.2	390.1
6	526.8	361.1
7	529.8	368.6
8	537.0	341.1
9	539.0	334.5
10	545.2	320.2
11	547.8	308.6
12	551.6	294.0
13	556.2	277.0
14	562.4	243.7
15	566.2	219.6
16	572.8	184.5
17	576.2	173.1
18	580.8	157.5
19	583.8	152.0
20	585.6	137.8
21	589.4	115.3
22	594.4	106.7
23	596.0	105.0
24	599.2	97.72
25	603.4	88.54
26	605.8	78.75
27	608.6	77.34
28	611.8	68.77
29	614.2	64.35
30	617.0	62.08
31	621.0	57.13
32	625.2	42.32
33	628.0	39.31
34	633.2	33.57
35	638.0	29.55
36	646.4	27.58
37	651.0	21.93
38	654.8	20.64
39	661.4	14.78
40	663.6	12.79
41	667.2	14.17
42	673.0	14.54
43	675.0	13.10
44	677.2	15.59
45	679.8	12.46
46	682.2	10.56
47	686.2	8.203
48	689.4	10.79
49	691.6	10.47
50	695.0	6.426
51	705.0	6.307
52	711.4	5.949
53	715.6	8.224
54	721.6	6.242
55	725.6	5.981
56	729.0	5.979
57	732.4	5.610
58	737.0	4.956
59	741.0	6.985
60	747.2	6.921
61	749.6	6.280
62	752.4	7.276
63	756.2	4.971
64	759.6	4.250
65	761.4	5.390
66	764.6	4.715
67	769.8	4.748
68	772.6	5.329
69	774.4	4.640
70	780.0	5.848

Data Points
nm	Data
480.0	18.26
481.0	26.40
482.0	21.21
483.0	22.90
484.0	32.92
485.0	44.97
486.0	42.88
487.0	51.53
488.0	68.00
489.0	63.94
490.0	80.05
491.0	106.2
492.0	98.02
493.0	113.4
494.0	138.1
495.0	147.2
496.0	163.1
497.0	175.4
498.0	208.2
499.0	248.2
500.0	241.6
501.0	252.5
502.0	279.5
503.0	287.1
504.0	306.6
505.0	302.2
506.0	356.6
507.0	353.1
508.0	369.4
509.0	377.6
510.0	408.1
511.0	375.8
512.0	396.5
513.0	398.4
514.0	406.4
515.0	399.4
516.0	423.1
517.0	427.8
518.0	396.9
519.0	408.2
520.0	410.9
521.0	409.1
522.0	435.9
523.0	420.0
524.0	415.6
525.0	392.4
526.0	381.0
527.0	372.8
528.0	383.1
529.0	379.6
530.0	374.0
531.0	385.3
532.0	372.5
533.0	367.6
534.0	368.5
535.0	360.1
536.0	354.3
537.0	341.1
538.0	354.5
539.0	334.5
540.0	359.1
541.0	357.5
542.0	340.8
543.0	330.3
544.0	331.5
545.0	332.9
546.0	347.6
547.0	328.6
548.0	318.7
549.0	317.7
550.0	317.8
551.0	326.8
552.0	305.9
553.0	311.7
554.0	296.4
555.0	300.2
556.0	283.9
557.0	298.8
558.0	298.0
559.0	274.0
560.0	260.5
561.0	255.2
562.0	257.5
563.0	249.0
564.0	254.0
565.0	238.8
566.0	222.9
567.0	235.7
568.0	240.9
569.0	231.7
570.0	229.2
571.0	195.8
572.0	194.2
573.0	189.8
574.0	189.6
575.0	182.9
576.0	177.1
577.0	182.6
578.0	176.4
579.0	163.5
580.0	164.7
581.0	166.9
582.0	169.3
583.0	156.3
584.0	160.0
585.0	144.5
586.0	138.7
587.0	141.2
588.0	128.9
589.0	116.0
590.0	129.8
591.0	137.5
592.0	117.1
593.0	115.0
594.0	121.1
595.0	124.1
596.0	105.0
597.0	123.9
598.0	109.9
599.0	98.93
600.0	104.0
601.0	106.7
602.0	89.73
603.0	88.95
604.0	95.51
605.0	92.83
606.0	82.81
607.0	83.81
608.0	81.07
609.0	83.85
610.0	95.13
611.0	80.67
612.0	69.51
613.0	76.95
614.0	70.44
615.0	77.63
616.0	74.51
617.0	62.08
618.0	74.70
619.0	61.70
620.0	58.42
621.0	57.13
622.0	58.50
623.0	52.19
624.0	55.65
625.0	43.91
626.0	50.35
627.0	44.81
628.0	39.31
629.0	49.00
630.0	41.06
631.0	33.79
632.0	37.48
633.0	34.69
634.0	41.32
635.0	41.62
636.0	38.86
637.0	32.73
638.0	29.55
639.0	33.57
640.0	34.49
641.0	36.66
642.0	38.33
643.0	33.37
644.0	29.53
645.0	29.13
646.0	28.98
647.0	32.80
648.0	32.94
649.0	26.55
650.0	26.45
651.0	21.93
652.0	27.01
653.0	26.34
654.0	25.08
655.0	23.32
656.0	23.06
657.0	27.22
658.0	22.78
659.0	24.40
660.0	19.13
661.0	17.49
662.0	20.67
663.0	19.80
664.0	19.15
665.0	21.57
666.0	20.15
667.0	15.89
668.0	23.08
669.0	21.93
670.0	18.87
671.0	15.33
672.0	16.38
673.0	14.54
674.0	16.24
675.0	13.10
676.0	19.61
677.0	17.17
678.0	17.50
679.0	15.56
680.0	13.04
681.0	17.11
682.0	11.98
683.0	11.51
684.0	15.07
685.0	12.68
686.0	10.15
687.0	11.99
688.0	14.79
689.0	10.86
690.0	12.32
691.0	13.18
692.0	12.06
693.0	14.79
694.0	7.592
695.0	6.426
696.0	9.840
697.0	9.606
698.0	10.35
699.0	10.41
700.0	12.66
701.0	13.37
702.0	11.72
703.0	13.25
704.0	8.594
705.0	6.307
706.0	7.776
707.0	8.331
708.0	10.87
709.0	9.274
710.0	8.594
711.0	6.763
712.0	6.392
713.0	10.02
714.0	10.80
715.0	13.92
716.0	8.709
717.0	10.25
718.0	12.17
719.0	14.36
720.0	10.12
721.0	10.07
722.0	9.713
723.0	7.380
724.0	8.627
725.0	8.703
726.0	10.64
727.0	10.39
728.0	9.581
729.0	5.979
730.0	9.472
731.0	6.265
732.0	7.361
733.0	8.868
734.0	11.55
735.0	8.970
736.0	6.334
737.0	4.956
738.0	8.612
739.0	10.90
740.0	9.698
741.0	6.985
742.0	12.91
743.0	8.568
744.0	8.989
745.0	11.79
746.0	7.373
747.0	7.746
748.0	10.04
749.0	7.983
750.0	8.334
751.0	12.79
752.0	8.162
753.0	9.167
754.0	8.620
755.0	6.206
756.0	6.079
757.0	7.905
758.0	11.42
759.0	7.269
760.0	4.406
761.0	9.210
762.0	8.618
763.0	5.455
764.0	7.103
765.0	6.536
766.0	9.751
767.0	14.35
768.0	13.53
769.0	7.641
770.0	7.077
771.0	7.193
772.0	6.743
773.0	5.447
774.0	7.403
775.0	5.321
776.0	8.838
777.0	8.321
778.0	11.28
779.0	7.439
780.0	5.848

Sample:	'wa-20(EM)
File name:	10.FDS
Run Date:	'17:06:46, 07/11/2024
Operator:	WXH
Comment:	'

Instrument
Model:	F-4600 FL Spectrophotometer
Serial Number:	3080-002
ROM Version:	5J24000 02

Instrument Parameters
Measurement type:	Wavelength scan
Scan mode:	Emission
Data mode:	Fluorescence
EX WL:	460.0 nm
EM  Start WL:	480.0 nm
EM  End WL:	780.0 nm
Scan speed:	1200 nm/min
Delay:	0.0 s
EX Slit:	2.5 nm
EM Slit:	2.5 nm
PMT Voltage:	600 V
Response:	Auto 
Corrected spectra:	Off
Shutter control:	On

Peak integration
Integration method:	Rectangular
Sensitivity:	1
Threshold:	1.000

Peaks
No.	Valley(nm)	Valley(Data)
1	509.4	367.3
2	514.6	390.4
3	517.8	391.8
4	520.4	405.7
5	524.6	375.0
6	527.8	359.8
7	531.8	367.1
8	536.6	343.3
9	540.2	330.7
10	548.2	296.7
11	552.2	297.8
12	555.4	285.7
13	557.8	261.0
14	560.4	259.0
15	564.0	224.7
16	566.2	221.3
17	568.2	203.7
18	579.4	151.1
19	584.0	135.7
20	590.6	113.9
21	595.0	105.8
22	596.8	96.52
23	599.6	100.5
24	605.2	78.25
25	610.4	76.15
26	617.4	58.32
27	620.6	51.41
28	626.2	43.78
29	636.8	33.62
30	640.2	30.29
31	645.2	22.56
32	647.2	23.59
33	650.2	23.24
34	655.6	14.66
35	659.8	14.39
36	663.2	14.99
37	665.6	14.06
38	670.0	12.59
39	674.4	13.07
40	678.2	12.16
41	682.8	11.17
42	688.8	12.09
43	692.4	9.247
44	695.6	6.939
45	699.2	8.045
46	704.0	7.172
47	709.2	7.373
48	711.0	6.247
49	716.0	3.990
50	720.0	5.582
51	725.4	5.639
52	728.2	6.363
53	730.0	5.615
54	733.2	4.508
55	739.2	8.549
56	742.6	6.006
57	744.8	6.703
58	747.6	7.123
59	749.8	5.436
60	751.6	4.691
61	754.6	3.415
62	758.2	5.736
63	761.0	6.132
64	765.0	5.262
65	768.2	5.276
66	770.6	5.433
67	775.0	6.103
68	780.0	5.544

Data Points
nm	Data
480.0	19.43
481.0	28.59
482.0	30.65
483.0	27.15
484.0	38.02
485.0	38.64
486.0	48.90
487.0	54.57
488.0	61.88
489.0	75.43
490.0	91.96
491.0	88.08
492.0	101.4
493.0	118.4
494.0	137.2
495.0	153.0
496.0	166.0
497.0	182.4
498.0	204.9
499.0	202.5
500.0	243.2
501.0	252.4
502.0	260.2
503.0	274.0
504.0	304.1
505.0	319.8
506.0	329.1
507.0	351.2
508.0	378.4
509.0	377.6
510.0	384.3
511.0	378.5
512.0	394.0
513.0	394.9
514.0	402.9
515.0	397.9
516.0	415.4
517.0	438.7
518.0	403.8
519.0	425.7
520.0	415.5
521.0	413.0
522.0	429.4
523.0	421.6
524.0	399.2
525.0	380.3
526.0	384.0
527.0	370.3
528.0	371.7
529.0	380.4
530.0	375.3
531.0	372.0
532.0	369.5
533.0	359.5
534.0	348.4
535.0	359.8
536.0	352.6
537.0	356.1
538.0	342.3
539.0	354.5
540.0	336.1
541.0	335.8
542.0	344.3
543.0	338.3
544.0	325.2
545.0	328.1
546.0	323.1
547.0	311.9
548.0	301.8
549.0	316.1
550.0	315.8
551.0	310.3
552.0	299.2
553.0	304.6
554.0	296.0
555.0	292.2
556.0	294.9
557.0	279.2
558.0	263.1
559.0	281.8
560.0	271.1
561.0	267.4
562.0	266.8
563.0	257.4
564.0	224.7
565.0	239.4
566.0	221.3
567.0	219.1
568.0	209.7
569.0	215.0
570.0	218.2
571.0	206.8
572.0	195.8
573.0	184.6
574.0	190.7
575.0	188.0
576.0	168.6
577.0	167.0
578.0	162.1
579.0	152.8
580.0	152.3
581.0	155.2
582.0	154.2
583.0	146.1
584.0	135.7
585.0	143.2
586.0	155.5
587.0	148.0
588.0	130.1
589.0	116.4
590.0	121.1
591.0	124.8
592.0	121.0
593.0	128.6
594.0	112.9
595.0	105.8
596.0	122.8
597.0	106.3
598.0	108.5
599.0	110.4
600.0	101.2
601.0	97.65
602.0	105.2
603.0	98.97
604.0	83.16
605.0	79.46
606.0	86.40
607.0	94.84
608.0	85.08
609.0	82.68
610.0	81.05
611.0	83.89
612.0	83.90
613.0	80.36
614.0	70.79
615.0	65.62
616.0	65.19
617.0	67.37
618.0	63.23
619.0	67.81
620.0	64.79
621.0	55.63
622.0	60.04
623.0	57.74
624.0	54.50
625.0	51.44
626.0	46.53
627.0	52.32
628.0	53.15
629.0	54.44
630.0	53.46
631.0	48.88
632.0	46.67
633.0	42.12
634.0	41.63
635.0	43.38
636.0	35.68
637.0	37.13
638.0	36.08
639.0	36.47
640.0	31.46
641.0	37.03
642.0	33.10
643.0	32.12
644.0	28.82
645.0	23.53
646.0	29.42
647.0	25.60
648.0	29.39
649.0	28.02
650.0	24.03
651.0	28.39
652.0	25.11
653.0	27.39
654.0	18.97
655.0	20.56
656.0	17.59
657.0	24.94
658.0	23.10
659.0	17.64
660.0	16.28
661.0	21.16
662.0	19.81
663.0	17.31
664.0	19.17
665.0	18.22
666.0	18.21
667.0	25.21
668.0	17.03
669.0	16.71
670.0	12.59
671.0	16.88
672.0	21.08
673.0	14.61
674.0	13.49
675.0	15.01
676.0	17.29
677.0	15.41
678.0	13.31
679.0	14.04
680.0	17.94
681.0	14.79
682.0	12.76
683.0	12.53
684.0	11.20
685.0	11.15
686.0	18.30
687.0	13.84
688.0	15.54
689.0	12.11
690.0	14.74
691.0	11.26
692.0	9.907
693.0	9.792
694.0	13.13
695.0	11.15
696.0	9.013
697.0	12.52
698.0	12.10
699.0	9.809
700.0	13.85
701.0	11.59
702.0	8.981
703.0	9.377
704.0	7.172
705.0	10.30
706.0	12.89
707.0	11.08
708.0	7.539
709.0	7.428
710.0	12.02
711.0	6.247
712.0	8.265
713.0	10.10
714.0	11.14
715.0	9.246
716.0	3.990
717.0	8.210
718.0	8.493
719.0	9.100
720.0	5.582
721.0	6.740
722.0	10.54
723.0	8.341
724.0	9.453
725.0	6.141
726.0	12.90
727.0	9.388
728.0	6.777
729.0	8.120
730.0	5.615
731.0	9.602
732.0	12.14
733.0	4.923
734.0	7.093
735.0	8.743
736.0	9.265
737.0	12.68
738.0	14.50
739.0	8.664
740.0	13.30
741.0	9.136
742.0	9.618
743.0	7.867
744.0	10.71
745.0	8.350
746.0	8.551
747.0	9.947
748.0	8.359
749.0	10.09
750.0	5.627
751.0	7.977
752.0	6.421
753.0	6.914
754.0	6.236
755.0	7.769
756.0	8.955
757.0	9.470
758.0	6.964
759.0	9.217
760.0	8.176
761.0	6.132
762.0	10.29
763.0	9.256
764.0	6.630
765.0	5.262
766.0	7.910
767.0	5.638
768.0	6.472
769.0	7.044
770.0	8.278
771.0	6.471
772.0	7.272
773.0	9.859
774.0	8.208
775.0	6.103
776.0	8.122
777.0	12.20
778.0	7.424
779.0	5.358
780.0	5.544

