Sample:	'wa-1(EM)
File name:	20.FDS
Run Date:	'16:40:00, 07/11/2024
Operator:	WXH
Comment:	'

Instrument
Model:	F-4600 FL Spectrophotometer
Serial Number:	3080-002
ROM Version:	5J24000 02

Instrument Parameters
Measurement type:	Wavelength scan
Scan mode:	Emission
Data mode:	Fluorescence
EX WL:	460.0 nm
EM  Start WL:	480.0 nm
EM  End WL:	780.0 nm
Scan speed:	1200 nm/min
Delay:	0.0 s
EX Slit:	2.5 nm
EM Slit:	2.5 nm
PMT Voltage:	600 V
Response:	Auto 
Corrected spectra:	Off
Shutter control:	On

Peak integration
Integration method:	Rectangular
Sensitivity:	1
Threshold:	1.000

Peaks
No.	Valley(nm)	Valley(Data)
1	488.4	15.44
2	509.0	163.9
3	515.8	185.6
4	521.6	192.6
5	525.6	188.6
6	527.4	195.0
7	533.0	182.9
8	535.6	170.6
9	536.8	171.1
10	540.0	172.5
11	546.0	157.7
12	552.4	151.6
13	556.6	139.3
14	560.0	134.3
15	565.6	117.6
16	569.0	116.5
17	572.2	99.68
18	574.8	102.8
19	576.6	95.13
20	580.6	81.69
21	583.6	80.24
22	585.4	71.30
23	587.4	77.32
24	591.2	59.93
25	596.8	57.87
26	599.8	55.54
27	601.8	55.07
28	607.6	47.82
29	610.2	41.90
30	611.6	42.70
31	615.4	38.66
32	619.2	34.11
33	625.6	29.21
34	629.0	27.19
35	632.4	26.38
36	636.0	21.07
37	639.2	17.51
38	641.4	20.38
39	644.0	18.86
40	645.2	16.62
41	650.4	12.74
42	652.6	13.60
43	655.0	15.62
44	658.2	11.63
45	659.8	12.73
46	663.8	13.95
47	665.8	10.10
48	667.4	10.95
49	674.6	6.561
50	676.6	7.933
51	679.0	8.482
52	681.8	8.630
53	684.4	8.584
54	687.8	7.252
55	690.0	6.476
56	691.6	6.054
57	696.0	4.306
58	701.6	8.857
59	705.8	6.178
60	710.6	6.250
61	714.4	6.213
62	717.0	5.955
63	720.0	6.126
64	723.4	6.920
65	727.6	2.525
66	732.0	3.580
67	735.2	6.117
68	740.6	3.303
69	742.6	3.835
70	744.6	5.094
71	748.8	3.713
72	751.2	3.832
73	756.2	4.214
74	761.0	4.929
75	765.0	3.593
76	767.4	4.390
77	773.0	6.329
78	776.0	7.396
79	780.0	6.353

Data Points
nm	Data
480.0	9.024
481.0	13.76
482.0	10.77
483.0	15.53
484.0	19.69
485.0	23.90
486.0	26.62
487.0	19.44
488.0	16.21
489.0	22.95
490.0	32.81
491.0	44.86
492.0	42.69
493.0	53.97
494.0	56.22
495.0	66.19
496.0	74.20
497.0	86.19
498.0	84.60
499.0	94.25
500.0	105.7
501.0	102.9
502.0	116.8
503.0	126.0
504.0	140.4
505.0	151.0
506.0	156.2
507.0	168.6
508.0	180.2
509.0	163.9
510.0	186.8
511.0	189.1
512.0	195.3
513.0	203.6
514.0	197.0
515.0	209.0
516.0	189.8
517.0	200.8
518.0	204.4
519.0	213.9
520.0	217.8
521.0	207.5
522.0	198.7
523.0	210.1
524.0	187.1
525.0	192.0
526.0	201.9
527.0	199.5
528.0	202.4
529.0	210.5
530.0	200.5
531.0	195.0
532.0	188.4
533.0	182.9
534.0	188.5
535.0	176.8
536.0	177.1
537.0	173.3
538.0	187.4
539.0	182.9
540.0	172.5
541.0	187.5
542.0	182.9
543.0	176.8
544.0	179.5
545.0	174.8
546.0	157.7
547.0	172.2
548.0	180.5
549.0	167.6
550.0	176.4
551.0	155.6
552.0	160.0
553.0	163.2
554.0	168.3
555.0	156.5
556.0	147.8
557.0	152.9
558.0	154.2
559.0	143.9
560.0	134.3
561.0	135.5
562.0	151.1
563.0	138.7
564.0	132.5
565.0	127.9
566.0	123.2
567.0	123.3
568.0	120.0
569.0	116.5
570.0	130.6
571.0	123.4
572.0	108.1
573.0	107.9
574.0	107.9
575.0	110.1
576.0	98.41
577.0	108.3
578.0	102.7
579.0	93.82
580.0	85.80
581.0	89.17
582.0	86.61
583.0	81.20
584.0	83.88
585.0	74.03
586.0	83.98
587.0	78.13
588.0	78.53
589.0	75.07
590.0	76.00
591.0	61.67
592.0	69.44
593.0	77.63
594.0	72.32
595.0	72.90
596.0	69.27
597.0	60.57
598.0	68.59
599.0	60.30
600.0	58.25
601.0	68.46
602.0	55.57
603.0	58.43
604.0	57.14
605.0	56.18
606.0	49.85
607.0	51.31
608.0	50.37
609.0	48.21
610.0	41.95
611.0	47.34
612.0	42.89
613.0	48.55
614.0	41.46
615.0	40.87
616.0	47.36
617.0	41.73
618.0	43.95
619.0	36.22
620.0	39.75
621.0	35.99
622.0	36.14
623.0	33.60
624.0	27.71
625.0	32.18
626.0	31.71
627.0	31.80
628.0	33.42
629.0	27.19
630.0	27.84
631.0	33.54
632.0	31.65
633.0	31.20
634.0	34.06
635.0	27.30
636.0	21.07
637.0	23.92
638.0	23.55
639.0	19.90
640.0	23.88
641.0	21.91
642.0	25.07
643.0	22.39
644.0	18.86
645.0	19.34
646.0	17.12
647.0	19.96
648.0	21.39
649.0	21.02
650.0	14.17
651.0	18.43
652.0	14.64
653.0	17.69
654.0	23.00
655.0	15.62
656.0	17.66
657.0	15.84
658.0	12.81
659.0	15.89
660.0	13.34
661.0	14.70
662.0	17.76
663.0	18.69
664.0	16.64
665.0	14.24
666.0	10.48
667.0	13.77
668.0	12.92
669.0	17.32
670.0	14.40
671.0	11.08
672.0	10.04
673.0	11.64
674.0	8.024
675.0	9.417
676.0	10.64
677.0	9.615
678.0	9.531
679.0	8.482
680.0	8.711
681.0	11.92
682.0	10.35
683.0	11.51
684.0	9.087
685.0	12.18
686.0	10.56
687.0	10.96
688.0	7.473
689.0	7.802
690.0	6.476
691.0	8.209
692.0	8.192
693.0	7.150
694.0	7.617
695.0	10.42
696.0	4.306
697.0	5.547
698.0	7.306
699.0	9.932
700.0	10.00
701.0	11.69
702.0	9.668
703.0	8.568
704.0	11.68
705.0	8.433
706.0	6.821
707.0	7.715
708.0	9.159
709.0	13.61
710.0	8.530
711.0	9.211
712.0	10.99
713.0	12.28
714.0	7.959
715.0	10.70
716.0	8.659
717.0	5.955
718.0	7.719
719.0	9.395
720.0	6.126
721.0	7.596
722.0	9.789
723.0	7.805
724.0	9.042
725.0	5.399
726.0	6.238
727.0	5.574
728.0	4.870
729.0	7.993
730.0	6.226
731.0	5.096
732.0	3.580
733.0	8.005
734.0	10.31
735.0	6.363
736.0	9.524
737.0	6.512
738.0	6.605
739.0	4.609
740.0	5.018
741.0	3.868
742.0	6.776
743.0	5.798
744.0	6.778
745.0	8.086
746.0	7.900
747.0	10.32
748.0	8.306
749.0	4.889
750.0	4.805
751.0	4.784
752.0	5.946
753.0	8.116
754.0	6.724
755.0	10.16
756.0	5.253
757.0	7.438
758.0	7.350
759.0	9.896
760.0	7.373
761.0	4.929
762.0	5.124
763.0	7.675
764.0	7.666
765.0	3.593
766.0	7.516
767.0	5.941
768.0	7.643
769.0	4.915
770.0	7.704
771.0	7.692
772.0	6.723
773.0	6.329
774.0	9.803
775.0	10.19
776.0	7.396
777.0	10.16
778.0	7.952
779.0	4.517
780.0	6.353

Sample:	'wa-2(EM)
File name:	20.FDS
Run Date:	'16:40:30, 07/11/2024
Operator:	WXH
Comment:	'

Instrument
Model:	F-4600 FL Spectrophotometer
Serial Number:	3080-002
ROM Version:	5J24000 02

Instrument Parameters
Measurement type:	Wavelength scan
Scan mode:	Emission
Data mode:	Fluorescence
EX WL:	460.0 nm
EM  Start WL:	480.0 nm
EM  End WL:	780.0 nm
Scan speed:	1200 nm/min
Delay:	0.0 s
EX Slit:	2.5 nm
EM Slit:	2.5 nm
PMT Voltage:	600 V
Response:	Auto 
Corrected spectra:	Off
Shutter control:	On

Peak integration
Integration method:	Rectangular
Sensitivity:	1
Threshold:	1.000

Peaks
No.	Valley(nm)	Valley(Data)
1	483.8	16.14
2	485.8	19.43
3	502.2	106.7
4	505.4	139.6
5	511.6	177.2
6	514.2	194.9
7	521.4	188.0
8	524.6	189.9
9	528.4	179.4
10	529.4	175.0
11	533.4	177.7
12	537.8	175.5
13	540.4	173.3
14	541.6	167.9
15	545.2	163.4
16	548.8	156.6
17	550.8	154.1
18	552.8	148.1
19	557.2	133.9
20	560.0	145.9
21	562.8	132.1
22	566.0	130.3
23	568.6	112.6
24	573.0	97.89
25	575.8	94.53
26	577.4	94.06
27	580.8	86.15
28	583.6	82.76
29	585.8	80.81
30	587.6	75.06
31	591.0	68.00
32	594.0	63.83
33	597.6	53.61
34	600.4	53.46
35	605.8	43.97
36	608.2	46.84
37	613.6	36.05
38	615.8	33.83
39	621.8	31.49
40	627.0	25.25
41	630.8	25.29
42	634.0	20.18
43	638.2	16.88
44	642.2	17.71
45	644.6	15.76
46	647.0	15.03
47	649.8	14.83
48	651.4	16.32
49	654.4	10.80
50	658.4	11.22
51	661.2	9.746
52	663.6	10.08
53	667.2	6.930
54	668.8	7.186
55	672.4	8.072
56	675.2	10.90
57	679.4	5.480
58	683.4	7.567
59	685.8	6.399
60	689.4	6.596
61	694.4	6.728
62	697.8	5.406
63	701.0	6.514
64	703.4	3.933
65	706.8	6.965
66	711.8	5.823
67	714.2	6.798
68	716.8	7.009
69	719.0	7.827
70	721.8	6.650
71	723.4	6.870
72	726.2	8.735
73	731.4	4.284
74	733.6	5.281
75	738.4	4.429
76	740.0	6.806
77	743.4	4.852
78	744.8	4.590
79	749.0	4.903
80	751.2	6.324
81	752.8	5.779
82	755.8	5.015
83	757.4	2.696
84	760.0	4.890
85	764.0	4.445
86	766.8	3.842
87	768.8	5.147
88	776.4	4.532
89	780.0	6.723

Data Points
nm	Data
480.0	12.22
481.0	15.42
482.0	18.87
483.0	18.60
484.0	19.97
485.0	22.10
486.0	19.59
487.0	22.83
488.0	25.47
489.0	28.62
490.0	39.03
491.0	35.47
492.0	50.21
493.0	54.31
494.0	62.15
495.0	58.96
496.0	73.75
497.0	80.88
498.0	80.44
499.0	95.08
500.0	112.3
501.0	117.6
502.0	116.3
503.0	122.0
504.0	139.0
505.0	150.4
506.0	153.8
507.0	173.6
508.0	181.7
509.0	191.1
510.0	183.3
511.0	186.6
512.0	196.3
513.0	211.1
514.0	201.8
515.0	206.7
516.0	225.1
517.0	219.7
518.0	207.2
519.0	212.1
520.0	217.3
521.0	203.2
522.0	197.7
523.0	213.3
524.0	201.2
525.0	193.1
526.0	202.3
527.0	188.4
528.0	183.5
529.0	197.1
530.0	190.2
531.0	183.4
532.0	193.8
533.0	195.0
534.0	188.9
535.0	198.8
536.0	188.8
537.0	176.7
538.0	176.2
539.0	192.9
540.0	181.9
541.0	193.2
542.0	173.1
543.0	183.6
544.0	168.5
545.0	168.6
546.0	180.8
547.0	173.6
548.0	160.1
549.0	167.0
550.0	155.2
551.0	157.6
552.0	166.7
553.0	150.8
554.0	170.8
555.0	159.0
556.0	154.0
557.0	137.1
558.0	142.5
559.0	159.4
560.0	145.9
561.0	156.9
562.0	144.3
563.0	137.3
564.0	137.3
565.0	131.8
566.0	130.3
567.0	133.8
568.0	128.3
569.0	123.8
570.0	119.6
571.0	111.5
572.0	104.9
573.0	97.89
574.0	97.76
575.0	103.8
576.0	102.0
577.0	97.95
578.0	102.4
579.0	100.9
580.0	100.9
581.0	95.15
582.0	92.47
583.0	85.08
584.0	92.76
585.0	83.82
586.0	85.08
587.0	85.19
588.0	78.97
589.0	77.41
590.0	79.74
591.0	68.00
592.0	72.95
593.0	71.29
594.0	63.83
595.0	68.30
596.0	63.04
597.0	62.67
598.0	61.67
599.0	60.98
600.0	60.58
601.0	58.77
602.0	68.60
603.0	52.66
604.0	50.81
605.0	52.58
606.0	45.43
607.0	51.83
608.0	49.13
609.0	54.94
610.0	52.18
611.0	52.47
612.0	42.59
613.0	41.08
614.0	44.91
615.0	42.55
616.0	35.73
617.0	44.80
618.0	43.61
619.0	40.92
620.0	42.88
621.0	38.20
622.0	31.62
623.0	34.67
624.0	36.26
625.0	35.74
626.0	34.37
627.0	25.25
628.0	31.23
629.0	33.40
630.0	34.83
631.0	27.50
632.0	27.65
633.0	30.78
634.0	20.18
635.0	28.35
636.0	21.85
637.0	22.11
638.0	19.40
639.0	19.56
640.0	23.64
641.0	20.56
642.0	18.08
643.0	19.27
644.0	20.67
645.0	16.82
646.0	22.27
647.0	15.03
648.0	18.87
649.0	21.13
650.0	17.33
651.0	19.06
652.0	18.97
653.0	17.45
654.0	14.15
655.0	11.66
656.0	13.47
657.0	16.63
658.0	16.96
659.0	13.39
660.0	14.63
661.0	10.69
662.0	15.47
663.0	13.72
664.0	12.45
665.0	13.44
666.0	10.64
667.0	7.499
668.0	10.56
669.0	9.697
670.0	14.30
671.0	11.75
672.0	11.24
673.0	14.56
674.0	16.02
675.0	12.03
676.0	13.86
677.0	13.52
678.0	12.58
679.0	8.506
680.0	12.51
681.0	11.42
682.0	13.07
683.0	10.89
684.0	9.972
685.0	13.41
686.0	8.489
687.0	12.01
688.0	12.37
689.0	9.422
690.0	11.40
691.0	11.85
692.0	13.43
693.0	9.552
694.0	8.791
695.0	8.348
696.0	8.506
697.0	7.554
698.0	5.525
699.0	9.479
700.0	8.370
701.0	6.514
702.0	7.256
703.0	4.574
704.0	8.288
705.0	8.920
706.0	7.936
707.0	7.597
708.0	7.929
709.0	10.20
710.0	10.58
711.0	8.768
712.0	6.003
713.0	8.312
714.0	7.110
715.0	9.594
716.0	8.798
717.0	8.495
718.0	9.861
719.0	7.827
720.0	10.32
721.0	8.075
722.0	7.295
723.0	9.476
724.0	7.851
725.0	8.568
726.0	8.909
727.0	12.28
728.0	7.762
729.0	7.427
730.0	5.034
731.0	4.986
732.0	7.408
733.0	5.864
734.0	7.280
735.0	6.513
736.0	6.951
737.0	5.886
738.0	5.478
739.0	10.55
740.0	6.806
741.0	8.353
742.0	7.695
743.0	7.726
744.0	6.720
745.0	6.205
746.0	9.592
747.0	7.289
748.0	7.517
749.0	4.903
750.0	7.530
751.0	8.379
752.0	8.156
753.0	7.810
754.0	6.957
755.0	8.352
756.0	6.801
757.0	6.228
758.0	6.182
759.0	8.487
760.0	4.890
761.0	8.393
762.0	7.671
763.0	7.201
764.0	4.445
765.0	6.229
766.0	5.143
767.0	5.341
768.0	8.544
769.0	6.653
770.0	6.331
771.0	7.220
772.0	7.472
773.0	7.780
774.0	8.986
775.0	4.037
776.0	4.706
777.0	8.566
778.0	6.978
779.0	6.612
780.0	6.723

Sample:	'wa-3(EM)
File name:	20.FDS
Run Date:	'16:41:00, 07/11/2024
Operator:	WXH
Comment:	'

Instrument
Model:	F-4600 FL Spectrophotometer
Serial Number:	3080-002
ROM Version:	5J24000 02

Instrument Parameters
Measurement type:	Wavelength scan
Scan mode:	Emission
Data mode:	Fluorescence
EX WL:	460.0 nm
EM  Start WL:	480.0 nm
EM  End WL:	780.0 nm
Scan speed:	1200 nm/min
Delay:	0.0 s
EX Slit:	2.5 nm
EM Slit:	2.5 nm
PMT Voltage:	600 V
Response:	Auto 
Corrected spectra:	Off
Shutter control:	On

Peak integration
Integration method:	Rectangular
Sensitivity:	1
Threshold:	1.000

Peaks
No.	Valley(nm)	Valley(Data)
1	502.4	115.8
2	516.2	193.5
3	519.0	192.0
4	520.6	198.2
5	524.6	196.2
6	531.0	178.9
7	536.0	173.3
8	539.0	178.5
9	542.6	159.9
10	544.6	162.6
11	547.0	156.1
12	550.0	152.8
13	554.6	153.2
14	556.8	148.5
15	562.0	132.5
16	565.4	123.1
17	567.8	122.5
18	573.8	100.0
19	578.2	89.87
20	581.4	83.49
21	583.0	81.15
22	587.0	76.38
23	589.0	71.26
24	593.8	62.66
25	597.4	49.20
26	600.0	57.29
27	607.4	43.56
28	610.8	37.47
29	614.8	39.02
30	619.0	36.38
31	625.8	29.32
32	627.6	29.79
33	632.2	21.10
34	637.4	21.06
35	641.2	20.75
36	645.8	16.34
37	647.4	16.36
38	649.2	13.25
39	651.4	12.49
40	655.4	13.77
41	657.4	12.29
42	660.8	13.04
43	664.8	10.63
44	666.8	11.13
45	670.2	9.449
46	672.2	9.309
47	674.4	7.146
48	678.2	7.678
49	679.8	5.772
50	683.2	6.103
51	685.4	8.575
52	689.6	5.038
53	697.2	6.078
54	701.4	4.190
55	703.4	4.401
56	704.8	6.047
57	708.0	6.118
58	712.0	4.507
59	713.8	3.130
60	715.8	3.709
61	718.6	5.600
62	721.6	4.815
63	725.4	4.294
64	726.8	3.148
65	729.0	3.976
66	732.8	3.751
67	735.0	4.916
68	742.6	4.479
69	746.4	5.883
70	747.6	5.153
71	750.8	6.784
72	754.6	5.569
73	758.8	4.902
74	763.0	4.267
75	764.8	3.543
76	769.0	5.111
77	774.4	4.272
78	777.2	4.295

Data Points
nm	Data
480.0	12.50
481.0	11.54
482.0	16.02
483.0	18.78
484.0	17.86
485.0	23.88
486.0	23.62
487.0	26.60
488.0	27.42
489.0	28.26
490.0	38.90
491.0	35.78
492.0	44.27
493.0	54.45
494.0	54.20
495.0	57.47
496.0	79.70
497.0	82.54
498.0	81.86
499.0	100.9
500.0	111.0
501.0	128.0
502.0	124.5
503.0	118.8
504.0	138.3
505.0	146.0
506.0	144.0
507.0	166.0
508.0	165.9
509.0	177.9
510.0	195.7
511.0	195.1
512.0	212.2
513.0	209.3
514.0	217.5
515.0	197.4
516.0	205.0
517.0	196.5
518.0	206.7
519.0	192.0
520.0	208.8
521.0	202.3
522.0	207.0
523.0	209.0
524.0	209.0
525.0	198.3
526.0	211.7
527.0	209.1
528.0	194.8
529.0	191.1
530.0	194.1
531.0	178.9
532.0	190.2
533.0	182.1
534.0	201.0
535.0	194.3
536.0	173.3
537.0	179.5
538.0	187.7
539.0	178.5
540.0	188.8
541.0	185.2
542.0	172.5
543.0	178.6
544.0	190.3
545.0	174.6
546.0	180.5
547.0	156.1
548.0	169.0
549.0	163.6
550.0	152.8
551.0	161.5
552.0	167.8
553.0	164.0
554.0	156.6
555.0	158.1
556.0	157.7
557.0	151.6
558.0	157.2
559.0	145.5
560.0	146.3
561.0	144.6
562.0	132.5
563.0	144.4
564.0	142.1
565.0	129.4
566.0	131.5
567.0	124.5
568.0	123.1
569.0	128.0
570.0	125.3
571.0	119.1
572.0	107.7
573.0	108.3
574.0	100.3
575.0	107.4
576.0	109.4
577.0	102.2
578.0	93.48
579.0	101.5
580.0	95.80
581.0	85.43
582.0	89.77
583.0	81.15
584.0	92.03
585.0	86.87
586.0	86.54
587.0	76.38
588.0	82.02
589.0	71.26
590.0	83.94
591.0	77.94
592.0	73.43
593.0	74.71
594.0	63.25
595.0	69.49
596.0	67.86
597.0	54.51
598.0	61.22
599.0	64.93
600.0	57.29
601.0	58.83
602.0	56.23
603.0	57.33
604.0	56.15
605.0	50.55
606.0	49.67
607.0	44.42
608.0	52.26
609.0	52.59
610.0	46.72
611.0	40.04
612.0	51.32
613.0	49.10
614.0	44.45
615.0	39.06
616.0	46.36
617.0	47.81
618.0	42.13
619.0	36.38
620.0	45.35
621.0	39.93
622.0	37.00
623.0	33.91
624.0	33.83
625.0	33.50
626.0	32.33
627.0	33.15
628.0	30.04
629.0	32.89
630.0	31.40
631.0	26.79
632.0	23.80
633.0	24.90
634.0	28.52
635.0	30.52
636.0	28.36
637.0	24.50
638.0	23.48
639.0	26.71
640.0	27.81
641.0	22.73
642.0	25.98
643.0	21.91
644.0	20.90
645.0	19.77
646.0	20.47
647.0	19.95
648.0	21.57
649.0	14.95
650.0	18.74
651.0	15.37
652.0	18.65
653.0	17.93
654.0	15.59
655.0	18.41
656.0	16.82
657.0	15.76
658.0	15.19
659.0	16.94
660.0	14.87
661.0	13.05
662.0	14.72
663.0	18.83
664.0	15.63
665.0	12.58
666.0	16.36
667.0	11.87
668.0	15.36
669.0	11.91
670.0	9.847
671.0	13.73
672.0	10.55
673.0	11.46
674.0	9.289
675.0	8.017
676.0	12.41
677.0	9.761
678.0	9.484
679.0	7.193
680.0	6.416
681.0	12.89
682.0	10.76
683.0	6.594
684.0	14.25
685.0	9.059
686.0	13.12
687.0	11.71
688.0	10.63
689.0	7.949
690.0	10.22
691.0	11.23
692.0	9.085
693.0	10.64
694.0	10.61
695.0	8.730
696.0	8.054
697.0	9.329
698.0	7.231
699.0	12.55
700.0	10.61
701.0	6.725
702.0	8.090
703.0	5.095
704.0	7.766
705.0	6.455
706.0	7.984
707.0	8.388
708.0	6.118
709.0	10.96
710.0	8.100
711.0	7.754
712.0	4.507
713.0	5.155
714.0	3.478
715.0	5.725
716.0	4.452
717.0	8.026
718.0	5.762
719.0	5.777
720.0	7.490
721.0	4.983
722.0	8.526
723.0	8.170
724.0	8.292
725.0	4.577
726.0	6.016
727.0	3.154
728.0	7.059
729.0	3.976
730.0	9.646
731.0	7.249
732.0	4.111
733.0	3.976
734.0	10.14
735.0	4.916
736.0	9.143
737.0	7.801
738.0	9.421
739.0	7.789
740.0	8.813
741.0	8.242
742.0	6.236
743.0	5.402
744.0	6.824
745.0	7.319
746.0	6.201
747.0	6.537
748.0	6.159
749.0	8.868
750.0	9.551
751.0	7.015
752.0	9.341
753.0	8.986
754.0	6.801
755.0	6.346
756.0	6.911
757.0	9.043
758.0	7.389
759.0	5.059
760.0	5.997
761.0	5.996
762.0	8.383
763.0	4.267
764.0	10.56
765.0	4.591
766.0	7.362
767.0	7.937
768.0	6.506
769.0	5.111
770.0	8.158
771.0	6.170
772.0	6.310
773.0	6.243
774.0	5.453
775.0	4.818
776.0	6.336
777.0	6.328
778.0	4.721
779.0	5.892
780.0	6.878

Sample:	'wa-4(EM)
File name:	20.FDS
Run Date:	'16:41:31, 07/11/2024
Operator:	WXH
Comment:	'

Instrument
Model:	F-4600 FL Spectrophotometer
Serial Number:	3080-002
ROM Version:	5J24000 02

Instrument Parameters
Measurement type:	Wavelength scan
Scan mode:	Emission
Data mode:	Fluorescence
EX WL:	460.0 nm
EM  Start WL:	480.0 nm
EM  End WL:	780.0 nm
Scan speed:	1200 nm/min
Delay:	0.0 s
EX Slit:	2.5 nm
EM Slit:	2.5 nm
PMT Voltage:	600 V
Response:	Auto 
Corrected spectra:	Off
Shutter control:	On

Peak integration
Integration method:	Rectangular
Sensitivity:	1
Threshold:	1.000

Peaks
No.	Valley(nm)	Valley(Data)
1	493.2	42.09
2	497.4	74.96
3	505.6	148.7
4	513.0	183.8
5	515.6	203.1
6	521.2	196.3
7	527.6	186.1
8	530.6	182.3
9	533.0	172.6
10	538.8	174.5
11	541.6	156.1
12	544.6	160.7
13	547.0	153.3
14	552.2	150.4
15	556.6	133.2
16	560.4	144.5
17	563.8	126.2
18	569.8	104.9
19	572.6	91.54
20	577.8	93.29
21	582.0	82.66
22	585.0	74.17
23	587.6	71.26
24	590.8	72.95
25	595.6	63.68
26	597.2	56.91
27	599.8	50.96
28	604.8	51.63
29	609.0	41.01
30	615.0	37.07
31	619.4	35.51
32	621.8	33.78
33	624.4	32.04
34	626.8	24.88
35	628.8	25.65
36	630.6	25.20
37	635.6	19.42
38	637.2	19.14
39	639.6	18.82
40	641.2	17.24
41	644.2	15.66
42	647.2	14.88
43	649.8	16.21
44	652.6	14.38
45	656.6	14.05
46	661.2	11.07
47	664.6	10.49
48	674.4	8.927
49	679.8	8.714
50	683.4	7.713
51	685.0	8.032
52	687.4	8.522
53	691.0	5.677
54	694.2	7.325
55	696.4	7.183
56	698.6	9.099
57	700.8	7.246
58	702.2	4.741
59	704.2	2.958
60	708.0	6.647
61	711.4	4.453
62	714.4	5.165
63	719.2	4.904
64	721.6	3.632
65	723.8	6.070
66	727.6	2.423
67	732.8	5.850
68	734.4	4.109
69	737.0	5.862
70	743.4	2.269
71	748.6	4.414
72	754.0	4.815
73	755.8	3.649
74	759.4	4.123
75	761.2	4.088
76	763.4	2.290
77	768.2	3.889
78	772.8	5.855
79	776.2	4.465
80	780.0	7.307

Data Points
nm	Data
480.0	22.74
481.0	15.94
482.0	15.29
483.0	16.55
484.0	14.88
485.0	14.78
486.0	20.19
487.0	20.74
488.0	23.76
489.0	23.98
490.0	32.51
491.0	38.19
492.0	49.44
493.0	44.56
494.0	59.70
495.0	70.08
496.0	78.59
497.0	80.26
498.0	79.51
499.0	87.81
500.0	117.5
501.0	118.6
502.0	121.7
503.0	135.6
504.0	149.6
505.0	153.4
506.0	148.8
507.0	171.7
508.0	175.6
509.0	187.5
510.0	182.2
511.0	193.7
512.0	199.9
513.0	183.8
514.0	225.8
515.0	217.5
516.0	206.3
517.0	213.0
518.0	199.0
519.0	207.8
520.0	202.3
521.0	212.5
522.0	208.6
523.0	201.4
524.0	214.4
525.0	203.1
526.0	193.1
527.0	193.1
528.0	200.3
529.0	192.8
530.0	187.1
531.0	191.2
532.0	194.0
533.0	172.6
534.0	178.9
535.0	183.0
536.0	181.1
537.0	183.8
538.0	181.2
539.0	178.2
540.0	184.9
541.0	161.4
542.0	162.7
543.0	170.2
544.0	173.1
545.0	163.6
546.0	176.4
547.0	153.3
548.0	180.5
549.0	177.5
550.0	168.7
551.0	169.3
552.0	157.1
553.0	153.6
554.0	156.2
555.0	159.8
556.0	161.2
557.0	135.9
558.0	145.9
559.0	148.6
560.0	152.1
561.0	144.8
562.0	160.1
563.0	133.1
564.0	128.7
565.0	132.5
566.0	146.7
567.0	136.8
568.0	120.5
569.0	117.4
570.0	113.9
571.0	117.2
572.0	104.5
573.0	105.7
574.0	107.2
575.0	110.6
576.0	101.7
577.0	106.6
578.0	97.19
579.0	114.8
580.0	99.20
581.0	97.52
582.0	82.66
583.0	98.42
584.0	83.90
585.0	74.17
586.0	92.04
587.0	87.36
588.0	76.07
589.0	81.54
590.0	81.80
591.0	74.94
592.0	79.34
593.0	79.22
594.0	70.58
595.0	71.00
596.0	73.38
597.0	63.28
598.0	68.37
599.0	58.32
600.0	55.96
601.0	51.25
602.0	60.57
603.0	63.26
604.0	56.79
605.0	54.08
606.0	55.83
607.0	53.56
608.0	53.79
609.0	41.01
610.0	48.56
611.0	45.86
612.0	44.63
613.0	45.59
614.0	41.05
615.0	37.07
616.0	45.43
617.0	43.58
618.0	48.74
619.0	42.42
620.0	37.43
621.0	38.79
622.0	33.87
623.0	38.09
624.0	36.05
625.0	37.78
626.0	29.73
627.0	25.13
628.0	27.94
629.0	30.92
630.0	28.01
631.0	25.46
632.0	32.00
633.0	29.13
634.0	22.54
635.0	21.92
636.0	23.31
637.0	22.25
638.0	21.32
639.0	20.18
640.0	19.77
641.0	21.88
642.0	20.89
643.0	21.21
644.0	17.32
645.0	19.01
646.0	22.32
647.0	17.93
648.0	17.93
649.0	21.11
650.0	17.28
651.0	21.20
652.0	18.46
653.0	19.92
654.0	17.75
655.0	15.87
656.0	16.04
657.0	22.09
658.0	14.09
659.0	15.09
660.0	15.60
661.0	13.18
662.0	16.54
663.0	16.74
664.0	13.19
665.0	15.53
666.0	11.06
667.0	14.13
668.0	14.68
669.0	12.89
670.0	14.26
671.0	13.65
672.0	11.99
673.0	10.61
674.0	10.65
675.0	14.95
676.0	11.64
677.0	12.53
678.0	16.58
679.0	10.35
680.0	9.507
681.0	11.98
682.0	10.45
683.0	7.944
684.0	10.51
685.0	8.032
686.0	10.92
687.0	9.988
688.0	15.59
689.0	12.36
690.0	9.942
691.0	5.677
692.0	11.29
693.0	12.25
694.0	8.404
695.0	9.480
696.0	10.59
697.0	9.832
698.0	10.29
699.0	9.232
700.0	9.311
701.0	10.63
702.0	5.860
703.0	9.757
704.0	4.285
705.0	8.142
706.0	11.85
707.0	9.067
708.0	6.647
709.0	9.489
710.0	6.641
711.0	5.406
712.0	4.518
713.0	8.793
714.0	6.366
715.0	9.134
716.0	7.969
717.0	8.706
718.0	9.906
719.0	6.183
720.0	7.097
721.0	7.323
722.0	4.954
723.0	7.661
724.0	6.680
725.0	9.474
726.0	10.80
727.0	6.178
728.0	7.303
729.0	9.914
730.0	7.853
731.0	6.248
732.0	8.229
733.0	9.058
734.0	7.429
735.0	7.328
736.0	6.325
737.0	5.862
738.0	8.851
739.0	8.523
740.0	7.207
741.0	7.892
742.0	6.764
743.0	2.649
744.0	5.014
745.0	6.257
746.0	6.343
747.0	8.419
748.0	7.026
749.0	7.184
750.0	6.336
751.0	6.963
752.0	8.455
753.0	5.783
754.0	4.815
755.0	4.830
756.0	4.027
757.0	7.775
758.0	8.783
759.0	6.847
760.0	8.457
761.0	4.462
762.0	8.819
763.0	3.516
764.0	7.205
765.0	5.212
766.0	6.707
767.0	4.969
768.0	5.512
769.0	7.892
770.0	6.461
771.0	9.941
772.0	8.622
773.0	6.911
774.0	8.401
775.0	6.602
776.0	7.430
777.0	8.076
778.0	8.420
779.0	10.21
780.0	7.307

Sample:	'wa-5(EM)
File name:	20.FDS
Run Date:	'16:42:01, 07/11/2024
Operator:	WXH
Comment:	'

Instrument
Model:	F-4600 FL Spectrophotometer
Serial Number:	3080-002
ROM Version:	5J24000 02

Instrument Parameters
Measurement type:	Wavelength scan
Scan mode:	Emission
Data mode:	Fluorescence
EX WL:	460.0 nm
EM  Start WL:	480.0 nm
EM  End WL:	780.0 nm
Scan speed:	1200 nm/min
Delay:	0.0 s
EX Slit:	2.5 nm
EM Slit:	2.5 nm
PMT Voltage:	600 V
Response:	Auto 
Corrected spectra:	Off
Shutter control:	On

Peak integration
Integration method:	Rectangular
Sensitivity:	1
Threshold:	1.000

Peaks
No.	Valley(nm)	Valley(Data)
1	481.8	13.69
2	484.0	13.25
3	485.6	11.39
4	498.0	74.43
5	511.0	182.0
6	513.6	184.4
7	517.6	190.5
8	522.0	189.4
9	525.8	190.7
10	538.4	170.3
11	544.2	159.3
12	546.2	166.5
13	549.0	149.3
14	552.0	153.5
15	554.4	148.6
16	557.2	147.9
17	560.6	141.4
18	567.0	114.1
19	569.4	110.4
20	573.8	105.2
21	579.8	82.90
22	584.4	79.86
23	588.2	65.55
24	596.0	57.79
25	599.6	50.96
26	604.6	53.09
27	609.2	47.47
28	614.8	35.67
29	619.2	34.55
30	622.4	31.69
31	627.2	26.61
32	632.4	26.12
33	634.6	18.32
34	639.6	18.29
35	643.8	18.25
36	646.8	17.67
37	653.2	15.66
38	656.4	12.66
39	658.2	11.52
40	662.8	12.83
41	666.0	11.43
42	668.4	11.72
43	670.4	7.932
44	673.8	10.70
45	677.2	6.622
46	681.0	5.656
47	684.4	6.945
48	686.8	6.783
49	688.6	6.489
50	691.0	5.576
51	693.8	5.215
52	698.2	6.260
53	702.8	6.123
54	705.0	5.673
55	707.6	5.108
56	712.2	5.416
57	714.4	4.568
58	717.2	5.935
59	719.2	5.714
60	721.0	4.275
61	724.8	5.714
62	729.4	4.104
63	735.0	3.852
64	737.0	5.501
65	741.6	4.535
66	745.0	3.508
67	748.8	4.144
68	755.0	4.871
69	757.4	4.158
70	761.4	6.786
71	763.6	4.593
72	769.4	3.979
73	772.6	3.564
74	775.0	4.179
75	780.0	7.603

Data Points
nm	Data
480.0	16.13
481.0	15.66
482.0	14.35
483.0	16.54
484.0	13.25
485.0	17.13
486.0	16.89
487.0	22.13
488.0	27.06
489.0	36.60
490.0	36.58
491.0	38.07
492.0	47.49
493.0	49.62
494.0	52.66
495.0	57.99
496.0	67.01
497.0	79.69
498.0	74.43
499.0	92.98
500.0	104.0
501.0	101.9
502.0	118.4
503.0	126.9
504.0	148.6
505.0	138.5
506.0	154.2
507.0	158.3
508.0	166.8
509.0	189.0
510.0	197.3
511.0	182.0
512.0	185.8
513.0	205.9
514.0	196.5
515.0	203.1
516.0	203.2
517.0	192.7
518.0	197.2
519.0	213.0
520.0	198.7
521.0	198.0
522.0	189.4
523.0	207.1
524.0	205.7
525.0	193.6
526.0	195.6
527.0	199.0
528.0	204.8
529.0	208.7
530.0	201.9
531.0	191.4
532.0	186.9
533.0	183.3
534.0	186.6
535.0	184.4
536.0	180.6
537.0	183.0
538.0	174.6
539.0	177.1
540.0	187.2
541.0	184.9
542.0	180.4
543.0	165.9
544.0	176.4
545.0	173.9
546.0	169.2
547.0	179.8
548.0	173.3
549.0	149.3
550.0	161.6
551.0	163.8
552.0	153.5
553.0	160.3
554.0	153.4
555.0	159.6
556.0	153.4
557.0	149.6
558.0	158.3
559.0	146.6
560.0	146.9
561.0	144.9
562.0	142.9
563.0	163.9
564.0	153.6
565.0	133.2
566.0	133.1
567.0	114.1
568.0	123.0
569.0	113.5
570.0	116.0
571.0	112.6
572.0	108.2
573.0	110.0
574.0	109.3
575.0	120.5
576.0	105.1
577.0	107.0
578.0	101.0
579.0	87.05
580.0	93.71
581.0	97.66
582.0	92.47
583.0	94.26
584.0	85.63
585.0	85.92
586.0	88.43
587.0	79.73
588.0	73.24
589.0	80.63
590.0	72.77
591.0	67.77
592.0	66.35
593.0	64.16
594.0	63.26
595.0	66.81
596.0	57.79
597.0	59.04
598.0	60.16
599.0	57.38
600.0	53.39
601.0	63.43
602.0	62.56
603.0	56.54
604.0	57.51
605.0	62.40
606.0	54.93
607.0	55.13
608.0	48.10
609.0	48.44
610.0	50.51
611.0	56.60
612.0	49.68
613.0	42.31
614.0	38.48
615.0	39.98
616.0	47.47
617.0	49.90
618.0	40.65
619.0	35.29
620.0	43.00
621.0	40.14
622.0	36.33
623.0	43.93
624.0	36.04
625.0	33.10
626.0	33.95
627.0	26.69
628.0	35.55
629.0	34.36
630.0	28.86
631.0	27.57
632.0	29.49
633.0	31.83
634.0	25.03
635.0	25.78
636.0	28.30
637.0	27.38
638.0	27.18
639.0	22.46
640.0	22.97
641.0	24.91
642.0	20.58
643.0	19.98
644.0	19.29
645.0	17.39
646.0	23.59
647.0	18.72
648.0	17.78
649.0	24.82
650.0	18.98
651.0	17.12
652.0	18.41
653.0	17.15
654.0	15.86
655.0	17.32
656.0	15.87
657.0	15.78
658.0	13.88
659.0	14.80
660.0	15.80
661.0	19.32
662.0	13.64
663.0	15.14
664.0	15.36
665.0	14.94
666.0	11.43
667.0	16.74
668.0	13.84
669.0	11.98
670.0	10.02
671.0	13.83
672.0	11.54
673.0	12.10
674.0	12.46
675.0	10.78
676.0	10.72
677.0	7.882
678.0	10.85
679.0	10.21
680.0	10.17
681.0	5.656
682.0	12.15
683.0	9.130
684.0	8.451
685.0	10.42
686.0	11.52
687.0	8.695
688.0	7.278
689.0	8.241
690.0	10.36
691.0	5.576
692.0	9.283
693.0	11.65
694.0	9.263
695.0	8.167
696.0	9.884
697.0	6.446
698.0	8.712
699.0	8.995
700.0	13.36
701.0	11.10
702.0	9.194
703.0	6.781
704.0	9.956
705.0	5.673
706.0	11.79
707.0	8.469
708.0	5.149
709.0	6.179
710.0	8.285
711.0	9.684
712.0	6.515
713.0	8.825
714.0	7.121
715.0	5.936
716.0	7.263
717.0	6.224
718.0	6.904
719.0	6.474
720.0	8.231
721.0	4.275
722.0	6.098
723.0	5.426
724.0	8.324
725.0	8.163
726.0	8.615
727.0	8.380
728.0	8.643
729.0	5.946
730.0	4.840
731.0	6.661
732.0	6.898
733.0	10.16
734.0	8.798
735.0	3.852
736.0	7.528
737.0	5.501
738.0	8.107
739.0	10.57
740.0	9.631
741.0	5.355
742.0	8.479
743.0	5.613
744.0	9.121
745.0	3.508
746.0	6.258
747.0	4.298
748.0	6.330
749.0	5.879
750.0	5.549
751.0	7.780
752.0	8.219
753.0	5.989
754.0	6.532
755.0	4.871
756.0	7.961
757.0	6.322
758.0	5.292
759.0	7.128
760.0	10.64
761.0	7.305
762.0	7.069
763.0	7.175
764.0	6.158
765.0	6.767
766.0	7.211
767.0	8.600
768.0	6.222
769.0	6.786
770.0	7.254
771.0	6.269
772.0	5.592
773.0	9.595
774.0	8.780
775.0	4.179
776.0	5.768
777.0	8.510
778.0	6.105
779.0	5.072
780.0	7.603

Sample:	'wa-6(EM)
File name:	20.FDS
Run Date:	'16:42:31, 07/11/2024
Operator:	WXH
Comment:	'

Instrument
Model:	F-4600 FL Spectrophotometer
Serial Number:	3080-002
ROM Version:	5J24000 02

Instrument Parameters
Measurement type:	Wavelength scan
Scan mode:	Emission
Data mode:	Fluorescence
EX WL:	460.0 nm
EM  Start WL:	480.0 nm
EM  End WL:	780.0 nm
Scan speed:	1200 nm/min
Delay:	0.0 s
EX Slit:	2.5 nm
EM Slit:	2.5 nm
PMT Voltage:	600 V
Response:	Auto 
Corrected spectra:	Off
Shutter control:	On

Peak integration
Integration method:	Rectangular
Sensitivity:	1
Threshold:	1.000

Peaks
No.	Valley(nm)	Valley(Data)
1	485.8	16.71
2	508.0	161.8
3	516.2	192.7
4	519.8	206.5
5	522.0	197.6
6	524.2	194.1
7	526.2	201.7
8	529.4	188.4
9	532.8	182.5
10	536.2	182.0
11	539.0	166.0
12	542.2	167.7
13	546.0	162.8
14	548.0	158.9
15	551.2	148.0
16	558.8	145.6
17	563.2	133.4
18	571.2	105.4
19	575.4	102.9
20	577.6	93.06
21	579.8	85.61
22	582.8	82.99
23	585.6	74.85
24	588.8	66.25
25	594.2	58.79
26	596.2	64.29
27	599.6	53.65
28	604.2	52.78
29	608.8	42.20
30	614.4	31.34
31	617.4	37.74
32	620.0	37.59
33	623.0	30.89
34	626.0	27.29
35	630.4	24.39
36	632.8	19.76
37	637.6	24.37
38	640.2	20.30
39	644.4	14.24
40	649.2	15.05
41	651.0	14.33
42	655.2	13.08
43	658.0	10.46
44	660.8	16.70
45	667.6	8.482
46	670.8	11.15
47	672.4	10.09
48	677.6	8.936
49	679.4	8.036
50	684.6	5.287
51	686.6	8.155
52	689.8	4.853
53	691.2	7.079
54	695.2	5.184
55	697.2	7.156
56	701.2	7.633
57	707.4	4.943
58	711.6	3.937
59	713.8	4.901
60	715.2	5.582
61	717.2	5.109
62	720.2	5.446
63	723.8	4.901
64	726.4	7.430
65	730.4	5.133
66	734.2	6.105
67	735.6	6.701
68	738.6	4.394
69	741.2	4.337
70	743.2	4.796
71	746.2	3.572
72	751.6	3.455
73	754.2	5.055
74	759.2	4.422
75	762.8	6.143
76	766.4	3.339
77	770.6	5.246
78	773.4	5.804
79	775.0	5.511
80	776.6	4.899
81	778.6	3.801

Data Points
nm	Data
480.0	20.60
481.0	15.39
482.0	16.24
483.0	18.11
484.0	18.20
485.0	17.37
486.0	18.87
487.0	23.91
488.0	24.84
489.0	28.82
490.0	30.13
491.0	35.15
492.0	39.86
493.0	42.83
494.0	53.29
495.0	69.01
496.0	70.50
497.0	80.04
498.0	88.29
499.0	90.36
500.0	102.8
501.0	112.1
502.0	116.1
503.0	118.2
504.0	142.3
505.0	153.2
506.0	164.2
507.0	179.1
508.0	161.8
509.0	184.9
510.0	188.1
511.0	197.6
512.0	190.5
513.0	194.0
514.0	200.6
515.0	222.1
516.0	199.7
517.0	195.1
518.0	206.5
519.0	215.1
520.0	213.5
521.0	207.8
522.0	197.6
523.0	199.3
524.0	198.2
525.0	212.7
526.0	204.4
527.0	203.9
528.0	213.9
529.0	196.9
530.0	198.8
531.0	200.3
532.0	190.0
533.0	187.1
534.0	185.7
535.0	187.7
536.0	189.3
537.0	190.3
538.0	179.1
539.0	166.0
540.0	184.1
541.0	188.7
542.0	169.4
543.0	177.7
544.0	190.3
545.0	167.3
546.0	162.8
547.0	177.0
548.0	158.9
549.0	170.5
550.0	163.5
551.0	153.5
552.0	155.7
553.0	160.2
554.0	166.3
555.0	161.3
556.0	155.3
557.0	153.1
558.0	155.6
559.0	158.6
560.0	150.9
561.0	143.5
562.0	144.5
563.0	135.5
564.0	131.4
565.0	135.0
566.0	127.1
567.0	127.1
568.0	125.9
569.0	117.1
570.0	115.5
571.0	107.7
572.0	107.5
573.0	122.0
574.0	116.2
575.0	105.9
576.0	113.0
577.0	99.24
578.0	99.85
579.0	99.53
580.0	92.73
581.0	96.50
582.0	98.45
583.0	83.92
584.0	92.91
585.0	77.80
586.0	74.95
587.0	78.90
588.0	85.96
589.0	72.72
590.0	75.50
591.0	79.31
592.0	70.85
593.0	75.73
594.0	62.71
595.0	72.38
596.0	66.31
597.0	66.15
598.0	71.69
599.0	64.53
600.0	54.27
601.0	60.10
602.0	66.14
603.0	57.14
604.0	55.06
605.0	59.02
606.0	49.26
607.0	46.78
608.0	44.04
609.0	44.99
610.0	48.04
611.0	48.67
612.0	47.91
613.0	44.33
614.0	38.22
615.0	49.01
616.0	51.04
617.0	42.49
618.0	39.08
619.0	45.27
620.0	37.59
621.0	40.92
622.0	33.72
623.0	30.89
624.0	37.78
625.0	34.25
626.0	27.29
627.0	31.27
628.0	28.78
629.0	31.72
630.0	28.62
631.0	32.54
632.0	21.03
633.0	23.21
634.0	29.39
635.0	26.75
636.0	27.47
637.0	25.10
638.0	28.35
639.0	22.16
640.0	23.18
641.0	24.35
642.0	22.04
643.0	20.28
644.0	15.59
645.0	20.88
646.0	20.98
647.0	19.67
648.0	20.37
649.0	15.43
650.0	17.77
651.0	14.33
652.0	19.24
653.0	26.22
654.0	18.54
655.0	13.83
656.0	17.46
657.0	17.08
658.0	10.46
659.0	14.69
660.0	18.80
661.0	17.84
662.0	17.67
663.0	17.96
664.0	11.92
665.0	13.81
666.0	13.94
667.0	14.77
668.0	11.04
669.0	11.89
670.0	12.90
671.0	12.55
672.0	10.91
673.0	10.47
674.0	9.321
675.0	10.65
676.0	11.79
677.0	12.58
678.0	12.87
679.0	9.784
680.0	10.45
681.0	11.83
682.0	14.79
683.0	11.76
684.0	10.10
685.0	8.432
686.0	8.818
687.0	9.729
688.0	10.33
689.0	7.347
690.0	6.607
691.0	7.468
692.0	8.569
693.0	7.709
694.0	9.689
695.0	5.593
696.0	7.787
697.0	8.688
698.0	12.71
699.0	9.659
700.0	8.108
701.0	8.133
702.0	8.256
703.0	7.267
704.0	8.624
705.0	10.96
706.0	9.662
707.0	6.709
708.0	9.897
709.0	9.907
710.0	5.890
711.0	6.433
712.0	8.109
713.0	10.63
714.0	7.070
715.0	6.038
716.0	9.338
717.0	5.561
718.0	6.028
719.0	7.837
720.0	6.744
721.0	7.030
722.0	9.944
723.0	5.636
724.0	6.177
725.0	9.695
726.0	8.267
727.0	11.16
728.0	8.964
729.0	6.960
730.0	8.444
731.0	9.407
732.0	9.339
733.0	9.185
734.0	6.383
735.0	10.54
736.0	7.576
737.0	6.736
738.0	6.012
739.0	6.149
740.0	11.14
741.0	4.755
742.0	6.766
743.0	6.216
744.0	9.035
745.0	9.096
746.0	5.036
747.0	5.898
748.0	6.632
749.0	7.570
750.0	5.910
751.0	7.027
752.0	9.894
753.0	6.143
754.0	5.740
755.0	7.960
756.0	5.433
757.0	6.468
758.0	6.359
759.0	6.341
760.0	4.733
761.0	8.489
762.0	8.858
763.0	7.321
764.0	6.004
765.0	8.370
766.0	6.520
767.0	5.006
768.0	5.960
769.0	6.140
770.0	7.593
771.0	8.119
772.0	11.98
773.0	6.739
774.0	10.33
775.0	5.511
776.0	8.268
777.0	6.108
778.0	4.667
779.0	3.937
780.0	8.881

Sample:	'wa-7(EM)
File name:	20.FDS
Run Date:	'16:43:01, 07/11/2024
Operator:	WXH
Comment:	'

Instrument
Model:	F-4600 FL Spectrophotometer
Serial Number:	3080-002
ROM Version:	5J24000 02

Instrument Parameters
Measurement type:	Wavelength scan
Scan mode:	Emission
Data mode:	Fluorescence
EX WL:	460.0 nm
EM  Start WL:	480.0 nm
EM  End WL:	780.0 nm
Scan speed:	1200 nm/min
Delay:	0.0 s
EX Slit:	2.5 nm
EM Slit:	2.5 nm
PMT Voltage:	600 V
Response:	Auto 
Corrected spectra:	Off
Shutter control:	On

Peak integration
Integration method:	Rectangular
Sensitivity:	1
Threshold:	1.000

Peaks
No.	Valley(nm)	Valley(Data)
1	485.2	16.29
2	487.0	24.75
3	491.6	35.74
4	495.0	50.33
5	506.6	138.8
6	511.8	181.7
7	513.8	198.2
8	515.8	194.1
9	520.6	201.8
10	522.6	204.7
11	524.4	199.4
12	530.0	185.0
13	534.6	170.3
14	539.2	162.1
15	541.2	168.1
16	543.6	163.2
17	548.0	154.1
18	551.4	151.9
19	554.8	149.6
20	559.2	142.4
21	561.2	143.3
22	571.6	102.4
23	573.0	103.1
24	578.8	85.63
25	582.2	82.54
26	583.8	85.27
27	591.2	67.53
28	593.4	62.58
29	595.6	66.25
30	601.8	47.46
31	605.6	49.26
32	607.6	45.14
33	610.4	45.97
34	615.0	41.85
35	616.6	37.68
36	620.2	31.86
37	623.0	30.18
38	626.8	29.69
39	628.8	26.03
40	631.8	24.95
41	635.6	19.53
42	640.4	20.68
43	644.8	15.08
44	647.4	14.27
45	650.4	15.57
46	655.6	13.47
47	657.0	12.93
48	659.6	10.38
49	662.2	9.768
50	664.0	12.62
51	667.4	10.12
52	671.8	8.909
53	674.8	7.819
54	679.4	8.535
55	683.4	10.09
56	685.8	5.434
57	688.2	5.852
58	690.6	5.653
59	695.8	8.059
60	698.0	4.823
61	701.0	5.873
62	707.0	5.659
63	708.8	5.783
64	717.6	5.130
65	721.2	4.797
66	724.0	6.399
67	726.0	4.933
68	729.2	4.487
69	733.4	3.632
70	736.4	7.228
71	739.6	6.119
72	742.2	4.410
73	745.8	7.312
74	750.0	7.280
75	752.8	6.624
76	754.4	4.653
77	755.6	5.711
78	758.4	5.383
79	760.8	4.054
80	763.0	3.915
81	766.0	5.601
82	769.4	4.104
83	771.6	6.624
84	775.6	5.896
85	779.0	5.822

Data Points
nm	Data
480.0	20.10
481.0	15.14
482.0	13.93
483.0	18.22
484.0	17.96
485.0	18.15
486.0	25.16
487.0	24.75
488.0	28.96
489.0	28.47
490.0	36.60
491.0	42.80
492.0	39.46
493.0	57.88
494.0	59.65
495.0	50.33
496.0	65.60
497.0	77.37
498.0	87.25
499.0	88.32
500.0	103.6
501.0	108.8
502.0	117.8
503.0	126.9
504.0	138.7
505.0	142.2
506.0	148.7
507.0	153.5
508.0	170.8
509.0	182.2
510.0	184.9
511.0	197.9
512.0	192.8
513.0	221.7
514.0	201.1
515.0	207.1
516.0	197.0
517.0	208.8
518.0	200.5
519.0	208.3
520.0	216.8
521.0	212.4
522.0	211.2
523.0	212.7
524.0	208.5
525.0	213.4
526.0	212.2
527.0	204.7
528.0	204.4
529.0	201.7
530.0	185.0
531.0	185.6
532.0	202.3
533.0	184.7
534.0	185.4
535.0	176.6
536.0	179.6
537.0	179.3
538.0	211.0
539.0	166.0
540.0	182.3
541.0	172.2
542.0	174.3
543.0	175.4
544.0	175.5
545.0	181.6
546.0	177.6
547.0	169.4
548.0	154.1
549.0	168.5
550.0	178.9
551.0	155.9
552.0	168.9
553.0	175.1
554.0	159.9
555.0	157.8
556.0	174.2
557.0	165.9
558.0	150.2
559.0	144.7
560.0	147.6
561.0	143.6
562.0	147.7
563.0	142.1
564.0	135.0
565.0	136.5
566.0	133.9
567.0	138.6
568.0	136.4
569.0	134.6
570.0	121.4
571.0	110.8
572.0	111.0
573.0	103.1
574.0	110.0
575.0	108.8
576.0	100.4
577.0	99.16
578.0	95.37
579.0	92.74
580.0	96.84
581.0	87.50
582.0	85.42
583.0	93.50
584.0	86.29
585.0	88.49
586.0	77.14
587.0	76.63
588.0	75.53
589.0	73.70
590.0	77.24
591.0	68.27
592.0	65.88
593.0	65.34
594.0	68.89
595.0	66.84
596.0	73.06
597.0	65.96
598.0	69.06
599.0	67.56
600.0	61.98
601.0	50.82
602.0	54.31
603.0	53.48
604.0	62.48
605.0	53.84
606.0	50.18
607.0	51.20
608.0	52.08
609.0	48.11
610.0	51.24
611.0	53.55
612.0	50.68
613.0	44.68
614.0	49.76
615.0	41.85
616.0	47.75
617.0	44.37
618.0	48.22
619.0	37.65
620.0	33.97
621.0	37.11
622.0	40.45
623.0	30.18
624.0	40.40
625.0	35.68
626.0	35.56
627.0	30.31
628.0	33.66
629.0	27.12
630.0	32.68
631.0	24.95
632.0	26.57
633.0	30.16
634.0	28.68
635.0	23.32
636.0	22.00
637.0	24.97
638.0	22.87
639.0	26.01
640.0	23.75
641.0	25.34
642.0	20.83
643.0	22.14
644.0	18.32
645.0	19.89
646.0	19.97
647.0	18.29
648.0	18.51
649.0	19.50
650.0	17.57
651.0	19.06
652.0	18.57
653.0	21.31
654.0	15.73
655.0	13.77
656.0	17.68
657.0	12.93
658.0	15.34
659.0	12.63
660.0	19.38
661.0	14.97
662.0	11.72
663.0	16.93
664.0	12.62
665.0	15.32
666.0	17.39
667.0	11.33
668.0	14.74
669.0	13.94
670.0	13.75
671.0	9.820
672.0	10.90
673.0	15.39
674.0	13.91
675.0	9.200
676.0	11.46
677.0	11.88
678.0	11.02
679.0	9.585
680.0	8.908
681.0	16.35
682.0	12.15
683.0	12.65
684.0	14.06
685.0	8.124
686.0	6.817
687.0	8.428
688.0	7.071
689.0	8.882
690.0	7.079
691.0	7.532
692.0	9.894
693.0	13.15
694.0	12.04
695.0	9.164
696.0	9.098
697.0	7.330
698.0	4.823
699.0	9.756
700.0	5.897
701.0	5.873
702.0	9.988
703.0	9.499
704.0	9.676
705.0	10.32
706.0	10.19
707.0	5.659
708.0	9.962
709.0	5.978
710.0	7.246
711.0	7.188
712.0	10.18
713.0	10.92
714.0	9.584
715.0	9.475
716.0	7.337
717.0	5.753
718.0	7.115
719.0	5.776
720.0	6.315
721.0	5.662
722.0	8.251
723.0	8.891
724.0	6.399
725.0	8.795
726.0	4.933
727.0	7.596
728.0	6.953
729.0	5.468
730.0	6.024
731.0	7.155
732.0	7.342
733.0	5.883
734.0	4.879
735.0	8.810
736.0	8.550
737.0	8.760
738.0	7.501
739.0	7.996
740.0	7.177
741.0	8.911
742.0	5.769
743.0	9.296
744.0	8.670
745.0	9.997
746.0	7.666
747.0	7.424
748.0	7.718
749.0	9.218
750.0	7.280
751.0	8.725
752.0	7.292
753.0	10.48
754.0	7.029
755.0	7.785
756.0	7.239
757.0	8.670
758.0	6.360
759.0	7.424
760.0	5.843
761.0	7.518
762.0	7.003
763.0	3.915
764.0	5.142
765.0	9.490
766.0	5.601
767.0	11.26
768.0	12.50
769.0	6.704
770.0	7.341
771.0	9.474
772.0	9.668
773.0	7.571
774.0	9.486
775.0	9.399
776.0	10.50
777.0	10.11
778.0	6.534
779.0	5.822
780.0	7.693

Sample:	'wa-8(EM)
File name:	20.FDS
Run Date:	'16:43:32, 07/11/2024
Operator:	WXH
Comment:	'

Instrument
Model:	F-4600 FL Spectrophotometer
Serial Number:	3080-002
ROM Version:	5J24000 02

Instrument Parameters
Measurement type:	Wavelength scan
Scan mode:	Emission
Data mode:	Fluorescence
EX WL:	460.0 nm
EM  Start WL:	480.0 nm
EM  End WL:	780.0 nm
Scan speed:	1200 nm/min
Delay:	0.0 s
EX Slit:	2.5 nm
EM Slit:	2.5 nm
PMT Voltage:	600 V
Response:	Auto 
Corrected spectra:	Off
Shutter control:	On

Peak integration
Integration method:	Rectangular
Sensitivity:	1
Threshold:	1.000

Peaks
No.	Valley(nm)	Valley(Data)
1	486.8	16.26
2	510.6	174.5
3	512.8	187.1
4	516.2	200.9
5	519.0	183.9
6	522.0	193.1
7	524.6	187.0
8	527.8	187.8
9	533.2	179.7
10	539.8	159.4
11	544.8	160.7
12	549.2	151.7
13	550.8	152.4
14	554.0	153.7
15	557.2	155.4
16	559.6	138.2
17	565.0	118.0
18	571.4	117.6
19	574.2	108.3
20	578.0	95.60
21	579.6	91.69
22	582.0	81.44
23	589.4	67.56
24	593.6	64.62
25	596.6	59.93
26	597.8	61.94
27	603.6	48.79
28	613.2	41.96
29	615.4	41.24
30	618.8	30.68
31	625.0	29.79
32	628.6	25.35
33	635.4	22.58
34	641.2	19.15
35	647.2	17.56
36	650.0	14.91
37	655.2	12.12
38	660.4	9.055
39	663.0	9.333
40	667.6	9.424
41	671.8	7.429
42	673.4	8.882
43	677.2	9.304
44	680.6	5.432
45	683.6	7.124
46	686.8	8.919
47	690.6	5.198
48	693.8	6.930
49	695.0	8.910
50	697.8	6.070
51	700.6	3.692
52	705.0	4.575
53	708.0	5.164
54	710.2	7.327
55	715.4	4.971
56	717.4	6.584
57	721.6	2.620
58	725.6	6.343
59	728.4	3.656
60	731.8	5.168
61	737.4	4.375
62	738.4	3.495
63	745.2	4.920
64	747.2	3.891
65	750.2	4.390
66	753.0	5.177
67	757.4	4.955
68	761.6	3.508
69	764.6	6.104
70	769.2	4.733
71	772.2	3.218
72	774.8	6.153
73	777.4	4.238

Data Points
nm	Data
480.0	7.544
481.0	10.77
482.0	15.00
483.0	17.27
484.0	18.66
485.0	18.43
486.0	20.22
487.0	21.87
488.0	25.42
489.0	29.19
490.0	35.47
491.0	37.15
492.0	42.05
493.0	44.95
494.0	61.85
495.0	62.01
496.0	68.23
497.0	83.18
498.0	89.28
499.0	87.26
500.0	103.4
501.0	119.4
502.0	128.3
503.0	121.9
504.0	140.2
505.0	153.5
506.0	156.2
507.0	154.9
508.0	168.7
509.0	186.0
510.0	186.0
511.0	193.5
512.0	209.8
513.0	202.5
514.0	198.9
515.0	218.0
516.0	203.3
517.0	213.5
518.0	188.4
519.0	183.9
520.0	211.2
521.0	205.4
522.0	193.1
523.0	208.4
524.0	201.7
525.0	212.2
526.0	217.0
527.0	209.3
528.0	189.8
529.0	194.7
530.0	199.5
531.0	189.9
532.0	182.4
533.0	183.7
534.0	201.0
535.0	195.0
536.0	186.4
537.0	186.4
538.0	183.3
539.0	182.6
540.0	163.5
541.0	172.4
542.0	182.0
543.0	186.3
544.0	176.5
545.0	162.1
546.0	181.5
547.0	171.4
548.0	171.0
549.0	155.5
550.0	164.8
551.0	155.9
552.0	173.8
553.0	160.8
554.0	153.7
555.0	167.2
556.0	164.1
557.0	161.2
558.0	161.7
559.0	150.7
560.0	149.5
561.0	147.0
562.0	136.2
563.0	132.4
564.0	133.9
565.0	118.0
566.0	129.4
567.0	134.5
568.0	135.2
569.0	130.3
570.0	127.1
571.0	119.8
572.0	118.7
573.0	120.9
574.0	110.4
575.0	120.8
576.0	112.7
577.0	101.1
578.0	95.60
579.0	98.33
580.0	104.2
581.0	97.81
582.0	81.44
583.0	88.22
584.0	85.57
585.0	76.45
586.0	75.71
587.0	77.04
588.0	75.75
589.0	76.38
590.0	73.48
591.0	74.66
592.0	84.55
593.0	70.22
594.0	65.05
595.0	80.98
596.0	62.34
597.0	64.98
598.0	64.01
599.0	64.19
600.0	65.14
601.0	64.07
602.0	58.35
603.0	57.46
604.0	55.38
605.0	54.03
606.0	56.11
607.0	55.83
608.0	57.51
609.0	55.57
610.0	56.57
611.0	51.03
612.0	42.94
613.0	45.62
614.0	47.77
615.0	45.64
616.0	49.14
617.0	47.84
618.0	39.03
619.0	35.39
620.0	43.05
621.0	38.99
622.0	37.48
623.0	33.00
624.0	34.73
625.0	29.79
626.0	32.18
627.0	43.34
628.0	31.47
629.0	30.46
630.0	32.32
631.0	31.12
632.0	27.92
633.0	30.21
634.0	27.59
635.0	25.10
636.0	25.52
637.0	27.86
638.0	29.74
639.0	26.66
640.0	24.23
641.0	23.45
642.0	23.88
643.0	22.05
644.0	20.30
645.0	21.29
646.0	20.62
647.0	17.93
648.0	21.54
649.0	15.43
650.0	14.91
651.0	21.33
652.0	23.47
653.0	23.16
654.0	18.46
655.0	12.94
656.0	14.27
657.0	19.96
658.0	18.99
659.0	11.22
660.0	12.30
661.0	14.77
662.0	13.59
663.0	9.333
664.0	13.79
665.0	14.07
666.0	15.03
667.0	10.06
668.0	9.456
669.0	17.62
670.0	11.61
671.0	9.470
672.0	7.740
673.0	10.47
674.0	10.96
675.0	11.93
676.0	10.42
677.0	9.721
678.0	11.25
679.0	10.87
680.0	8.757
681.0	6.278
682.0	9.999
683.0	10.78
684.0	9.225
685.0	13.41
686.0	14.87
687.0	9.318
688.0	12.69
689.0	12.33
690.0	11.16
691.0	7.798
692.0	7.090
693.0	11.62
694.0	7.436
695.0	8.910
696.0	9.127
697.0	14.60
698.0	7.204
699.0	7.918
700.0	7.608
701.0	4.622
702.0	10.64
703.0	8.085
704.0	5.817
705.0	4.575
706.0	8.344
707.0	7.194
708.0	5.164
709.0	6.435
710.0	9.101
711.0	8.519
712.0	12.63
713.0	11.73
714.0	10.26
715.0	6.154
716.0	7.659
717.0	9.545
718.0	10.88
719.0	9.491
720.0	7.786
721.0	8.356
722.0	2.786
723.0	8.418
724.0	7.820
725.0	7.437
726.0	7.148
727.0	8.638
728.0	5.542
729.0	4.244
730.0	8.926
731.0	7.825
732.0	5.594
733.0	7.360
734.0	8.301
735.0	7.513
736.0	7.311
737.0	4.514
738.0	6.263
739.0	6.826
740.0	9.775
741.0	7.663
742.0	6.687
743.0	9.120
744.0	7.460
745.0	5.639
746.0	8.004
747.0	4.976
748.0	8.462
749.0	8.776
750.0	6.072
751.0	8.036
752.0	6.454
753.0	5.177
754.0	6.366
755.0	8.604
756.0	7.683
757.0	6.011
758.0	7.396
759.0	6.840
760.0	5.471
761.0	7.151
762.0	4.605
763.0	6.917
764.0	8.105
765.0	6.990
766.0	8.053
767.0	6.552
768.0	7.445
769.0	7.188
770.0	8.795
771.0	7.973
772.0	4.924
773.0	6.570
774.0	6.486
775.0	7.287
776.0	6.620
777.0	7.692
778.0	5.157
779.0	4.680
780.0	8.222

Sample:	'wa-9(EM)
File name:	20.FDS
Run Date:	'16:44:02, 07/11/2024
Operator:	WXH
Comment:	'

Instrument
Model:	F-4600 FL Spectrophotometer
Serial Number:	3080-002
ROM Version:	5J24000 02

Instrument Parameters
Measurement type:	Wavelength scan
Scan mode:	Emission
Data mode:	Fluorescence
EX WL:	460.0 nm
EM  Start WL:	480.0 nm
EM  End WL:	780.0 nm
Scan speed:	1200 nm/min
Delay:	0.0 s
EX Slit:	2.5 nm
EM Slit:	2.5 nm
PMT Voltage:	600 V
Response:	Auto 
Corrected spectra:	Off
Shutter control:	On

Peak integration
Integration method:	Rectangular
Sensitivity:	1
Threshold:	1.000

Peaks
No.	Valley(nm)	Valley(Data)
1	484.6	14.24
2	490.4	28.89
3	501.4	111.0
4	503.6	126.2
5	507.8	168.1
6	511.0	176.5
7	515.6	194.7
8	518.2	194.0
9	520.6	195.3
10	522.6	187.7
11	525.4	198.4
12	529.4	198.3
13	532.0	177.3
14	535.2	167.0
15	536.8	176.6
16	539.2	166.3
17	541.4	156.9
18	545.2	163.6
19	548.6	156.0
20	551.0	147.9
21	555.6	145.1
22	559.2	147.2
23	562.6	130.4
24	566.2	127.2
25	570.6	105.6
26	578.4	92.74
27	581.4	92.00
28	589.2	67.41
29	591.6	60.31
30	593.8	63.45
31	595.8	64.67
32	601.4	58.99
33	608.0	43.65
34	611.6	42.43
35	616.6	35.01
36	619.6	34.09
37	623.4	30.88
38	625.8	31.53
39	629.6	22.40
40	632.2	20.22
41	634.8	22.66
42	638.0	22.84
43	641.8	18.71
44	644.0	17.07
45	648.6	16.21
46	655.6	12.39
47	658.2	12.98
48	660.4	11.85
49	662.8	8.748
50	668.8	10.77
51	673.0	8.002
52	676.4	10.99
53	678.2	7.575
54	680.0	8.372
55	683.2	7.045
56	685.6	9.295
57	688.6	6.082
58	690.6	7.073
59	692.2	6.851
60	696.0	6.420
61	698.2	5.506
62	704.6	6.957
63	708.4	6.317
64	711.6	6.127
65	714.4	6.353
66	717.8	7.634
67	719.8	6.328
68	721.8	4.690
69	724.6	5.877
70	726.8	5.759
71	728.8	5.915
72	731.2	7.842
73	734.4	5.582
74	738.6	3.782
75	740.2	6.779
76	743.2	5.209
77	746.4	2.303
78	748.6	5.599
79	750.4	4.521
80	753.2	5.719
81	754.8	5.188
82	757.6	4.451
83	760.0	3.621
84	764.2	5.771
85	768.2	4.724
86	771.0	4.274
87	775.4	5.083
88	780.0	6.733

Data Points
nm	Data
480.0	25.53
481.0	14.59
482.0	13.03
483.0	13.94
484.0	17.31
485.0	15.30
486.0	19.11
487.0	25.39
488.0	27.84
489.0	31.22
490.0	29.71
491.0	34.32
492.0	39.77
493.0	51.99
494.0	63.28
495.0	65.97
496.0	66.03
497.0	70.37
498.0	85.51
499.0	100.4
500.0	105.0
501.0	112.6
502.0	115.3
503.0	129.9
504.0	134.1
505.0	144.9
506.0	164.3
507.0	184.0
508.0	172.3
509.0	175.5
510.0	184.7
511.0	176.5
512.0	188.9
513.0	205.4
514.0	220.1
515.0	216.8
516.0	200.1
517.0	205.1
518.0	197.6
519.0	199.6
520.0	210.3
521.0	206.9
522.0	198.9
523.0	203.3
524.0	197.5
525.0	211.2
526.0	209.7
527.0	210.8
528.0	214.1
529.0	201.7
530.0	204.7
531.0	202.1
532.0	177.3
533.0	191.4
534.0	177.4
535.0	172.1
536.0	188.5
537.0	178.8
538.0	196.4
539.0	172.0
540.0	177.7
541.0	165.4
542.0	165.7
543.0	168.0
544.0	180.6
545.0	168.3
546.0	175.5
547.0	178.3
548.0	173.4
549.0	169.1
550.0	177.9
551.0	147.9
552.0	160.2
553.0	162.2
554.0	166.1
555.0	148.1
556.0	160.6
557.0	160.5
558.0	156.6
559.0	156.3
560.0	151.4
561.0	145.2
562.0	157.4
563.0	136.9
564.0	143.6
565.0	140.4
566.0	138.2
567.0	139.2
568.0	140.6
569.0	134.2
570.0	117.5
571.0	106.9
572.0	111.8
573.0	117.6
574.0	110.2
575.0	108.8
576.0	115.4
577.0	98.16
578.0	98.14
579.0	99.79
580.0	99.49
581.0	92.33
582.0	95.75
583.0	93.54
584.0	92.32
585.0	92.90
586.0	85.87
587.0	73.12
588.0	75.01
589.0	74.77
590.0	82.12
591.0	67.87
592.0	80.15
593.0	72.75
594.0	68.71
595.0	72.28
596.0	64.77
597.0	67.19
598.0	74.82
599.0	68.91
600.0	62.86
601.0	65.38
602.0	65.91
603.0	59.44
604.0	60.44
605.0	54.54
606.0	52.61
607.0	51.01
608.0	43.65
609.0	51.38
610.0	45.89
611.0	47.03
612.0	45.58
613.0	40.73
614.0	43.73
615.0	39.12
616.0	38.43
617.0	40.82
618.0	46.98
619.0	39.77
620.0	39.94
621.0	35.87
622.0	36.40
623.0	34.57
624.0	35.53
625.0	33.81
626.0	33.05
627.0	34.71
628.0	25.32
629.0	28.30
630.0	26.41
631.0	32.24
632.0	25.02
633.0	29.18
634.0	23.90
635.0	23.67
636.0	25.18
637.0	27.91
638.0	22.84
639.0	28.31
640.0	22.02
641.0	19.70
642.0	21.27
643.0	22.19
644.0	17.07
645.0	24.58
646.0	21.09
647.0	19.29
648.0	19.57
649.0	20.81
650.0	19.86
651.0	29.03
652.0	22.49
653.0	17.76
654.0	13.07
655.0	13.16
656.0	14.80
657.0	17.51
658.0	14.15
659.0	18.51
660.0	15.12
661.0	14.45
662.0	13.83
663.0	9.470
664.0	13.87
665.0	10.69
666.0	12.83
667.0	14.21
668.0	12.44
669.0	13.36
670.0	15.52
671.0	13.73
672.0	12.89
673.0	8.002
674.0	12.80
675.0	9.939
676.0	13.72
677.0	14.93
678.0	7.954
679.0	12.21
680.0	8.372
681.0	11.75
682.0	9.501
683.0	7.265
684.0	11.11
685.0	10.24
686.0	12.58
687.0	9.195
688.0	6.491
689.0	10.22
690.0	8.780
691.0	7.889
692.0	7.856
693.0	8.175
694.0	8.709
695.0	7.499
696.0	6.420
697.0	9.499
698.0	7.203
699.0	6.480
700.0	5.047
701.0	8.616
702.0	8.763
703.0	8.916
704.0	6.922
705.0	7.303
706.0	8.407
707.0	6.551
708.0	6.833
709.0	6.848
710.0	8.417
711.0	7.516
712.0	6.971
713.0	9.497
714.0	6.629
715.0	7.605
716.0	11.10
717.0	11.14
718.0	9.337
719.0	8.377
720.0	6.757
721.0	9.594
722.0	7.187
723.0	10.22
724.0	7.785
725.0	7.420
726.0	12.16
727.0	6.551
728.0	8.112
729.0	7.376
730.0	11.56
731.0	8.770
732.0	10.73
733.0	10.39
734.0	6.078
735.0	7.396
736.0	9.131
737.0	9.700
738.0	5.853
739.0	6.768
740.0	8.799
741.0	8.967
742.0	9.050
743.0	5.539
744.0	8.385
745.0	10.39
746.0	3.661
747.0	5.042
748.0	8.139
749.0	7.401
750.0	7.986
751.0	9.789
752.0	7.407
753.0	7.243
754.0	8.423
755.0	7.888
756.0	7.649
757.0	4.819
758.0	6.241
759.0	9.560
760.0	3.621
761.0	6.469
762.0	9.365
763.0	8.725
764.0	6.475
765.0	8.229
766.0	7.799
767.0	7.377
768.0	4.796
769.0	7.498
770.0	8.189
771.0	4.274
772.0	6.044
773.0	8.758
774.0	9.459
775.0	7.691
776.0	7.661
777.0	8.891
778.0	7.534
779.0	5.424
780.0	6.733

Sample:	'wa-10(EM)
File name:	20.FDS
Run Date:	'16:44:32, 07/11/2024
Operator:	WXH
Comment:	'

Instrument
Model:	F-4600 FL Spectrophotometer
Serial Number:	3080-002
ROM Version:	5J24000 02

Instrument Parameters
Measurement type:	Wavelength scan
Scan mode:	Emission
Data mode:	Fluorescence
EX WL:	460.0 nm
EM  Start WL:	480.0 nm
EM  End WL:	780.0 nm
Scan speed:	1200 nm/min
Delay:	0.0 s
EX Slit:	2.5 nm
EM Slit:	2.5 nm
PMT Voltage:	600 V
Response:	Auto 
Corrected spectra:	Off
Shutter control:	On

Peak integration
Integration method:	Rectangular
Sensitivity:	1
Threshold:	1.000

Peaks
No.	Valley(nm)	Valley(Data)
1	485.8	16.74
2	508.4	165.9
3	512.0	186.6
4	514.8	203.1
5	518.4	194.2
6	521.0	195.8
7	523.4	194.3
8	525.6	193.1
9	532.4	172.3
10	534.0	171.3
11	538.2	169.7
12	540.4	160.5
13	546.0	159.3
14	550.2	154.2
15	553.8	144.8
16	558.4	149.1
17	566.2	124.1
18	568.4	115.2
19	573.6	108.0
20	575.6	102.9
21	578.4	96.10
22	581.8	84.77
23	584.8	80.57
24	590.0	65.99
25	591.6	73.93
26	595.6	59.49
27	602.4	52.08
28	605.2	47.72
29	607.0	47.31
30	608.8	38.61
31	614.2	36.11
32	616.4	37.60
33	620.4	32.61
34	629.6	25.11
35	632.8	28.36
36	635.0	20.79
37	636.4	23.46
38	639.6	20.28
39	643.0	19.58
40	644.4	20.45
41	648.2	14.39
42	650.0	13.89
43	653.2	16.60
44	655.4	12.15
45	658.6	9.720
46	662.8	11.05
47	667.6	8.470
48	669.6	12.45
49	672.0	9.821
50	674.2	10.80
51	677.2	8.687
52	679.4	7.613
53	682.2	8.631
54	684.2	10.11
55	687.0	7.464
56	689.8	5.953
57	691.6	8.963
58	698.0	7.995
59	700.2	6.336
60	704.4	4.558
61	707.0	6.985
62	711.4	9.123
63	714.0	7.635
64	718.6	6.557
65	723.0	5.740
66	724.8	3.735
67	728.0	5.393
68	731.8	3.525
69	735.4	2.467
70	739.2	3.172
71	742.2	4.979
72	744.8	4.584
73	748.8	2.466
74	754.2	5.405
75	757.2	5.406
76	759.6	5.343
77	763.0	3.202
78	766.2	5.457
79	770.2	3.469
80	775.6	3.971
81	777.2	4.098

Data Points
nm	Data
480.0	15.79
481.0	12.18
482.0	12.82
483.0	19.18
484.0	16.68
485.0	26.06
486.0	17.76
487.0	20.71
488.0	30.18
489.0	31.89
490.0	35.78
491.0	38.82
492.0	46.08
493.0	51.97
494.0	57.33
495.0	55.83
496.0	61.94
497.0	80.59
498.0	91.49
499.0	107.1
500.0	105.7
501.0	116.6
502.0	131.1
503.0	125.2
504.0	140.7
505.0	151.4
506.0	152.8
507.0	153.7
508.0	174.6
509.0	170.9
510.0	181.4
511.0	194.1
512.0	186.6
513.0	209.2
514.0	214.1
515.0	204.6
516.0	211.7
517.0	210.8
518.0	197.1
519.0	208.9
520.0	209.9
521.0	195.8
522.0	217.5
523.0	205.2
524.0	212.5
525.0	195.4
526.0	194.6
527.0	200.6
528.0	214.8
529.0	201.3
530.0	194.6
531.0	195.5
532.0	182.5
533.0	189.8
534.0	171.3
535.0	182.1
536.0	189.4
537.0	198.4
538.0	171.8
539.0	187.5
540.0	172.8
541.0	174.3
542.0	196.9
543.0	172.4
544.0	176.9
545.0	170.9
546.0	159.3
547.0	174.8
548.0	175.6
549.0	154.6
550.0	162.4
551.0	158.7
552.0	166.4
553.0	161.5
554.0	146.8
555.0	151.4
556.0	159.1
557.0	154.5
558.0	158.3
559.0	158.2
560.0	150.2
561.0	142.0
562.0	143.8
563.0	136.6
564.0	137.4
565.0	132.5
566.0	125.0
567.0	123.2
568.0	119.1
569.0	116.2
570.0	117.1
571.0	120.4
572.0	115.2
573.0	118.1
574.0	112.8
575.0	112.9
576.0	113.5
577.0	111.6
578.0	99.67
579.0	96.12
580.0	103.6
581.0	92.65
582.0	87.33
583.0	94.31
584.0	94.08
585.0	83.34
586.0	86.41
587.0	86.72
588.0	73.93
589.0	72.73
590.0	65.99
591.0	79.01
592.0	73.98
593.0	76.15
594.0	82.65
595.0	66.00
596.0	64.55
597.0	68.66
598.0	62.76
599.0	64.93
600.0	60.00
601.0	53.74
602.0	59.53
603.0	59.00
604.0	60.99
605.0	51.65
606.0	56.34
607.0	47.31
608.0	50.95
609.0	43.11
610.0	45.89
611.0	52.48
612.0	43.79
613.0	45.51
614.0	38.83
615.0	43.67
616.0	38.08
617.0	39.81
618.0	44.93
619.0	36.54
620.0	38.98
621.0	34.87
622.0	36.60
623.0	40.42
624.0	34.95
625.0	36.18
626.0	34.90
627.0	26.68
628.0	28.34
629.0	27.82
630.0	30.82
631.0	31.32
632.0	31.63
633.0	28.76
634.0	31.51
635.0	20.79
636.0	30.04
637.0	24.05
638.0	28.18
639.0	26.39
640.0	24.38
641.0	24.31
642.0	20.66
643.0	19.58
644.0	22.04
645.0	24.49
646.0	25.55
647.0	15.66
648.0	16.47
649.0	17.08
650.0	13.89
651.0	18.34
652.0	16.82
653.0	17.42
654.0	17.28
655.0	15.46
656.0	14.52
657.0	16.14
658.0	14.01
659.0	13.81
660.0	16.07
661.0	18.54
662.0	12.35
663.0	15.33
664.0	18.74
665.0	13.78
666.0	13.32
667.0	11.27
668.0	15.51
669.0	12.50
670.0	15.86
671.0	13.87
672.0	9.821
673.0	14.47
674.0	11.74
675.0	14.14
676.0	10.49
677.0	11.64
678.0	11.41
679.0	8.823
680.0	10.72
681.0	10.56
682.0	9.183
683.0	11.67
684.0	10.12
685.0	11.12
686.0	9.332
687.0	7.464
688.0	8.948
689.0	8.789
690.0	6.890
691.0	9.734
692.0	9.228
693.0	9.919
694.0	11.35
695.0	10.62
696.0	9.393
697.0	9.131
698.0	7.995
699.0	9.698
700.0	8.122
701.0	8.897
702.0	10.96
703.0	10.60
704.0	5.190
705.0	7.222
706.0	9.957
707.0	6.985
708.0	8.890
709.0	11.03
710.0	10.37
711.0	10.97
712.0	9.789
713.0	11.82
714.0	7.635
715.0	12.25
716.0	11.22
717.0	8.963
718.0	8.817
719.0	8.034
720.0	7.760
721.0	9.907
722.0	5.230
723.0	5.740
724.0	8.867
725.0	6.969
726.0	6.502
727.0	9.344
728.0	5.393
729.0	7.374
730.0	5.694
731.0	5.736
732.0	4.038
733.0	12.04
734.0	8.386
735.0	5.121
736.0	5.465
737.0	8.390
738.0	4.317
739.0	5.033
740.0	5.800
741.0	7.779
742.0	5.153
743.0	5.837
744.0	8.655
745.0	4.690
746.0	5.800
747.0	5.732
748.0	4.546
749.0	5.029
750.0	4.698
751.0	6.056
752.0	4.558
753.0	8.035
754.0	6.443
755.0	8.892
756.0	10.17
757.0	7.228
758.0	6.402
759.0	8.137
760.0	9.051
761.0	6.087
762.0	5.499
763.0	3.202
764.0	7.615
765.0	10.70
766.0	7.140
767.0	8.316
768.0	6.739
769.0	7.473
770.0	5.230
771.0	7.578
772.0	6.619
773.0	7.098
774.0	9.070
775.0	6.083
776.0	4.895
777.0	5.332
778.0	7.222
779.0	6.445
780.0	6.030

Sample:	'wa-11(EM)
File name:	20.FDS
Run Date:	'16:45:02, 07/11/2024
Operator:	WXH
Comment:	'

Instrument
Model:	F-4600 FL Spectrophotometer
Serial Number:	3080-002
ROM Version:	5J24000 02

Instrument Parameters
Measurement type:	Wavelength scan
Scan mode:	Emission
Data mode:	Fluorescence
EX WL:	460.0 nm
EM  Start WL:	480.0 nm
EM  End WL:	780.0 nm
Scan speed:	1200 nm/min
Delay:	0.0 s
EX Slit:	2.5 nm
EM Slit:	2.5 nm
PMT Voltage:	600 V
Response:	Auto 
Corrected spectra:	Off
Shutter control:	On

Peak integration
Integration method:	Rectangular
Sensitivity:	1
Threshold:	1.000

Peaks
No.	Valley(nm)	Valley(Data)
1	483.2	13.71
2	488.2	16.95
3	491.6	33.89
4	498.0	81.86
5	506.4	140.6
6	511.0	178.9
7	514.2	191.4
8	517.8	199.8
9	520.8	201.1
10	523.6	197.9
11	528.4	187.6
12	533.0	189.6
13	536.2	176.1
14	537.6	174.3
15	543.6	170.6
16	548.0	159.7
17	552.6	150.4
18	557.4	147.0
19	561.6	135.6
20	564.4	119.9
21	569.0	115.7
22	571.2	109.1
23	574.4	112.2
24	575.8	101.9
25	579.0	89.90
26	582.0	85.15
27	585.6	77.69
28	587.4	71.80
29	593.0	67.76
30	596.0	63.59
31	598.2	58.86
32	601.6	51.91
33	603.8	49.43
34	605.8	54.46
35	607.8	42.66
36	610.2	41.13
37	614.8	37.71
38	616.2	36.19
39	621.8	32.89
40	623.6	35.52
41	626.6	32.89
42	631.4	21.93
43	633.0	21.44
44	636.4	22.89
45	639.8	21.02
46	641.0	19.69
47	645.2	18.15
48	648.4	15.89
49	655.4	11.69
50	659.6	13.86
51	663.2	9.746
52	666.2	10.07
53	669.0	10.15
54	671.6	10.32
55	675.2	6.151
56	680.0	6.738
57	682.6	6.195
58	685.4	7.114
59	690.6	6.494
60	694.4	5.768
61	697.4	4.587
62	700.6	7.550
63	702.0	6.996
64	705.0	7.417
65	707.8	5.859
66	709.8	6.468
67	713.4	4.910
68	715.6	3.948
69	717.8	6.801
70	722.8	4.778
71	726.0	5.573
72	728.8	4.387
73	732.6	4.003
74	737.4	7.875
75	739.4	3.972
76	741.8	4.044
77	745.4	6.323
78	750.4	4.281
79	752.6	4.548
80	754.4	7.428
81	758.0	5.501
82	762.0	6.919
83	763.6	6.431
84	765.6	4.561
85	769.6	4.976
86	771.4	6.582
87	772.6	6.258
88	774.8	6.376
89	776.6	5.193

Data Points
nm	Data
480.0	7.317
481.0	11.30
482.0	17.10
483.0	15.87
484.0	16.34
485.0	17.36
486.0	23.67
487.0	21.61
488.0	19.77
489.0	29.05
490.0	35.14
491.0	36.27
492.0	37.15
493.0	48.24
494.0	53.81
495.0	65.52
496.0	76.45
497.0	85.31
498.0	81.86
499.0	92.03
500.0	107.8
501.0	123.3
502.0	124.3
503.0	122.8
504.0	139.2
505.0	156.7
506.0	147.2
507.0	162.7
508.0	171.5
509.0	174.2
510.0	190.9
511.0	178.9
512.0	191.4
513.0	205.7
514.0	193.0
515.0	213.9
516.0	219.6
517.0	223.7
518.0	199.9
519.0	216.8
520.0	218.2
521.0	214.8
522.0	217.1
523.0	200.2
524.0	204.5
525.0	208.1
526.0	215.5
527.0	205.8
528.0	201.3
529.0	202.4
530.0	200.7
531.0	195.2
532.0	202.8
533.0	189.6
534.0	194.2
535.0	203.4
536.0	180.0
537.0	193.5
538.0	182.7
539.0	184.7
540.0	186.5
541.0	193.4
542.0	188.9
543.0	181.1
544.0	189.0
545.0	183.7
546.0	169.0
547.0	169.4
548.0	159.7
549.0	180.2
550.0	170.2
551.0	176.6
552.0	159.2
553.0	157.3
554.0	160.1
555.0	178.3
556.0	160.7
557.0	152.4
558.0	151.0
559.0	156.9
560.0	137.1
561.0	141.7
562.0	140.1
563.0	142.4
564.0	129.1
565.0	124.4
566.0	126.5
567.0	130.9
568.0	116.1
569.0	115.7
570.0	130.8
571.0	116.6
572.0	116.0
573.0	123.2
574.0	115.0
575.0	114.0
576.0	115.3
577.0	111.9
578.0	110.1
579.0	89.90
580.0	100.1
581.0	94.24
582.0	85.15
583.0	98.04
584.0	86.62
585.0	82.44
586.0	82.43
587.0	75.33
588.0	73.88
589.0	76.02
590.0	73.62
591.0	70.84
592.0	72.55
593.0	67.76
594.0	76.30
595.0	66.60
596.0	63.59
597.0	67.57
598.0	59.37
599.0	67.27
600.0	62.19
601.0	58.64
602.0	58.04
603.0	56.83
604.0	54.39
605.0	66.64
606.0	58.95
607.0	56.51
608.0	45.35
609.0	45.99
610.0	45.14
611.0	48.34
612.0	46.21
613.0	43.57
614.0	48.03
615.0	44.80
616.0	37.50
617.0	42.02
618.0	37.87
619.0	44.43
620.0	40.73
621.0	35.50
622.0	40.81
623.0	38.61
624.0	39.65
625.0	35.85
626.0	40.26
627.0	38.95
628.0	37.00
629.0	37.62
630.0	27.50
631.0	25.54
632.0	24.93
633.0	21.44
634.0	25.85
635.0	26.57
636.0	24.59
637.0	26.27
638.0	23.77
639.0	22.66
640.0	23.77
641.0	19.69
642.0	25.19
643.0	21.28
644.0	21.57
645.0	18.98
646.0	21.16
647.0	20.05
648.0	17.25
649.0	18.01
650.0	22.56
651.0	21.27
652.0	21.64
653.0	19.21
654.0	17.36
655.0	14.11
656.0	15.50
657.0	17.08
658.0	15.60
659.0	14.62
660.0	14.15
661.0	16.84
662.0	14.52
663.0	11.94
664.0	14.51
665.0	13.88
666.0	10.30
667.0	14.87
668.0	16.12
669.0	10.15
670.0	16.60
671.0	12.61
672.0	16.20
673.0	11.28
674.0	11.36
675.0	8.697
676.0	7.774
677.0	11.18
678.0	9.925
679.0	10.36
680.0	6.738
681.0	9.664
682.0	11.31
683.0	8.777
684.0	11.00
685.0	9.132
686.0	10.64
687.0	10.04
688.0	10.24
689.0	9.766
690.0	6.778
691.0	8.287
692.0	11.70
693.0	10.22
694.0	6.914
695.0	11.04
696.0	8.667
697.0	5.513
698.0	7.481
699.0	8.914
700.0	8.684
701.0	10.04
702.0	6.996
703.0	9.407
704.0	6.844
705.0	7.417
706.0	13.96
707.0	8.005
708.0	8.089
709.0	7.677
710.0	9.639
711.0	9.700
712.0	10.54
713.0	6.493
714.0	6.952
715.0	5.827
716.0	7.681
717.0	11.21
718.0	7.334
719.0	7.889
720.0	10.59
721.0	7.601
722.0	8.329
723.0	4.989
724.0	5.902
725.0	6.897
726.0	5.573
727.0	10.36
728.0	6.818
729.0	9.627
730.0	7.618
731.0	6.941
732.0	6.363
733.0	5.255
734.0	5.680
735.0	8.018
736.0	9.203
737.0	9.858
738.0	9.159
739.0	7.751
740.0	4.069
741.0	8.586
742.0	5.939
743.0	6.692
744.0	8.315
745.0	8.555
746.0	9.328
747.0	9.645
748.0	9.878
749.0	5.448
750.0	9.061
751.0	5.570
752.0	8.449
753.0	5.659
754.0	9.258
755.0	7.595
756.0	9.762
757.0	5.844
758.0	5.501
759.0	6.856
760.0	10.95
761.0	8.199
762.0	6.919
763.0	9.186
764.0	9.028
765.0	11.33
766.0	8.150
767.0	6.665
768.0	7.704
769.0	6.952
770.0	11.25
771.0	8.221
772.0	10.37
773.0	9.387
774.0	7.348
775.0	8.875
776.0	8.019
777.0	7.539
778.0	7.039
779.0	6.429
780.0	7.510

Sample:	'wa-12(EM)
File name:	20.FDS
Run Date:	'16:45:33, 07/11/2024
Operator:	WXH
Comment:	'

Instrument
Model:	F-4600 FL Spectrophotometer
Serial Number:	3080-002
ROM Version:	5J24000 02

Instrument Parameters
Measurement type:	Wavelength scan
Scan mode:	Emission
Data mode:	Fluorescence
EX WL:	460.0 nm
EM  Start WL:	480.0 nm
EM  End WL:	780.0 nm
Scan speed:	1200 nm/min
Delay:	0.0 s
EX Slit:	2.5 nm
EM Slit:	2.5 nm
PMT Voltage:	600 V
Response:	Auto 
Corrected spectra:	Off
Shutter control:	On

Peak integration
Integration method:	Rectangular
Sensitivity:	1
Threshold:	1.000

Peaks
No.	Valley(nm)	Valley(Data)
1	483.8	15.10
2	505.4	150.5
3	509.0	178.2
4	510.6	181.8
5	515.6	191.0
6	518.4	194.3
7	525.2	181.6
8	531.0	191.2
9	535.8	170.4
10	537.6	168.9
11	540.2	171.3
12	544.0	168.4
13	546.4	150.0
14	552.0	145.2
15	554.0	156.6
16	558.0	143.1
17	561.0	131.7
18	563.2	129.4
19	567.8	120.6
20	573.6	104.2
21	576.6	99.98
22	580.0	96.11
23	584.8	76.41
24	586.4	74.77
25	590.2	65.94
26	594.8	60.81
27	597.8	56.48
28	600.4	56.35
29	606.2	46.90
30	610.6	47.29
31	613.4	41.77
32	614.8	38.96
33	619.4	33.84
34	622.8	33.09
35	625.4	27.12
36	627.6	24.67
37	630.8	26.73
38	633.4	21.38
39	635.4	21.16
40	637.4	22.95
41	642.8	17.80
42	649.4	14.52
43	651.6	12.11
44	655.4	16.79
45	664.0	9.272
46	670.0	8.471
47	671.8	8.996
48	675.4	10.16
49	679.8	6.925
50	683.2	8.686
51	685.0	8.197
52	688.6	7.662
53	691.8	8.361
54	696.6	4.771
55	698.8	7.124
56	700.4	7.006
57	702.4	5.712
58	706.4	4.879
59	711.0	6.428
60	713.6	3.574
61	717.0	6.163
62	720.4	5.298
63	722.4	4.370
64	726.6	4.997
65	727.6	7.452
66	732.6	3.836
67	734.6	5.531
68	738.6	4.562
69	740.4	2.641
70	742.6	5.030
71	745.4	4.043
72	747.8	5.153
73	749.8	5.185
74	754.2	3.088
75	756.8	3.155
76	761.6	3.273
77	764.0	5.747
78	767.4	4.619
79	769.8	4.590
80	773.4	3.857
81	776.6	5.146

Data Points
nm	Data
480.0	11.75
481.0	13.54
482.0	19.21
483.0	17.82
484.0	16.89
485.0	17.67
486.0	16.87
487.0	20.55
488.0	27.85
489.0	29.16
490.0	30.73
491.0	33.37
492.0	43.05
493.0	50.33
494.0	52.31
495.0	58.95
496.0	67.17
497.0	83.75
498.0	97.20
499.0	94.58
500.0	104.5
501.0	118.8
502.0	123.1
503.0	135.8
504.0	165.0
505.0	157.5
506.0	163.8
507.0	167.3
508.0	185.0
509.0	178.2
510.0	187.6
511.0	185.7
512.0	198.9
513.0	218.4
514.0	222.3
515.0	217.1
516.0	210.7
517.0	205.7
518.0	202.0
519.0	200.8
520.0	205.6
521.0	215.9
522.0	215.2
523.0	205.4
524.0	198.7
525.0	187.5
526.0	208.8
527.0	204.8
528.0	202.4
529.0	206.6
530.0	198.1
531.0	191.2
532.0	199.9
533.0	214.9
534.0	202.8
535.0	175.6
536.0	183.3
537.0	173.3
538.0	185.5
539.0	183.5
540.0	180.7
541.0	178.3
542.0	188.5
543.0	177.0
544.0	168.4
545.0	181.4
546.0	161.3
547.0	157.3
548.0	164.6
549.0	166.8
550.0	171.6
551.0	159.8
552.0	145.2
553.0	169.8
554.0	156.6
555.0	169.9
556.0	163.9
557.0	153.6
558.0	143.1
559.0	153.4
560.0	143.9
561.0	131.7
562.0	142.1
563.0	139.3
564.0	156.5
565.0	137.0
566.0	135.8
567.0	135.0
568.0	131.3
569.0	138.2
570.0	119.6
571.0	126.3
572.0	115.9
573.0	122.3
574.0	110.0
575.0	114.4
576.0	110.4
577.0	104.1
578.0	104.3
579.0	97.11
580.0	96.11
581.0	104.5
582.0	101.8
583.0	81.35
584.0	87.86
585.0	81.02
586.0	83.55
587.0	82.06
588.0	74.62
589.0	68.10
590.0	68.57
591.0	71.45
592.0	69.05
593.0	73.55
594.0	65.49
595.0	65.67
596.0	67.57
597.0	62.11
598.0	63.98
599.0	63.41
600.0	59.31
601.0	62.85
602.0	57.34
603.0	56.76
604.0	47.61
605.0	51.62
606.0	53.12
607.0	61.71
608.0	58.86
609.0	53.40
610.0	43.70
611.0	48.93
612.0	53.61
613.0	46.08
614.0	43.17
615.0	41.02
616.0	45.11
617.0	40.19
618.0	37.88
619.0	38.67
620.0	34.39
621.0	40.19
622.0	39.05
623.0	35.92
624.0	33.24
625.0	30.46
626.0	29.74
627.0	28.73
628.0	28.26
629.0	33.40
630.0	29.04
631.0	30.57
632.0	28.66
633.0	27.00
634.0	28.31
635.0	21.99
636.0	26.62
637.0	24.42
638.0	23.49
639.0	24.12
640.0	25.26
641.0	22.67
642.0	20.79
643.0	18.06
644.0	19.15
645.0	21.42
646.0	21.88
647.0	19.81
648.0	17.10
649.0	16.65
650.0	20.59
651.0	16.41
652.0	17.53
653.0	22.13
654.0	17.89
655.0	20.31
656.0	16.89
657.0	17.95
658.0	15.79
659.0	16.75
660.0	15.53
661.0	16.13
662.0	11.72
663.0	11.96
664.0	9.272
665.0	17.72
666.0	14.84
667.0	12.96
668.0	12.83
669.0	14.54
670.0	8.471
671.0	14.63
672.0	9.191
673.0	15.35
674.0	14.93
675.0	12.24
676.0	10.88
677.0	12.09
678.0	11.78
679.0	13.02
680.0	8.306
681.0	11.43
682.0	12.34
683.0	10.83
684.0	10.08
685.0	8.197
686.0	9.769
687.0	14.22
688.0	10.19
689.0	9.603
690.0	8.504
691.0	10.52
692.0	8.405
693.0	12.13
694.0	8.804
695.0	8.802
696.0	8.651
697.0	5.601
698.0	10.99
699.0	7.281
700.0	10.59
701.0	9.237
702.0	8.399
703.0	8.694
704.0	11.06
705.0	7.830
706.0	6.074
707.0	8.536
708.0	12.24
709.0	9.265
710.0	9.271
711.0	6.428
712.0	11.13
713.0	6.982
714.0	5.928
715.0	9.426
716.0	10.06
717.0	6.163
718.0	7.015
719.0	10.25
720.0	7.075
721.0	7.979
722.0	9.026
723.0	8.476
724.0	9.967
725.0	8.438
726.0	7.539
727.0	9.141
728.0	9.188
729.0	10.42
730.0	10.01
731.0	6.375
732.0	6.236
733.0	7.443
734.0	6.640
735.0	7.918
736.0	9.071
737.0	9.969
738.0	6.141
739.0	5.043
740.0	5.931
741.0	6.563
742.0	7.182
743.0	6.303
744.0	6.395
745.0	5.476
746.0	8.869
747.0	7.639
748.0	6.993
749.0	7.947
750.0	7.225
751.0	7.656
752.0	7.547
753.0	6.464
754.0	3.563
755.0	5.892
756.0	4.183
757.0	6.535
758.0	7.970
759.0	5.781
760.0	6.088
761.0	4.295
762.0	5.381
763.0	9.096
764.0	5.747
765.0	8.176
766.0	6.846
767.0	5.496
768.0	5.826
769.0	6.331
770.0	7.100
771.0	6.087
772.0	6.307
773.0	7.454
774.0	7.462
775.0	7.126
776.0	6.263
777.0	5.785
778.0	8.120
779.0	10.61
780.0	6.601

Sample:	'wa-13(EM)
File name:	20.FDS
Run Date:	'16:46:03, 07/11/2024
Operator:	WXH
Comment:	'

Instrument
Model:	F-4600 FL Spectrophotometer
Serial Number:	3080-002
ROM Version:	5J24000 02

Instrument Parameters
Measurement type:	Wavelength scan
Scan mode:	Emission
Data mode:	Fluorescence
EX WL:	460.0 nm
EM  Start WL:	480.0 nm
EM  End WL:	780.0 nm
Scan speed:	1200 nm/min
Delay:	0.0 s
EX Slit:	2.5 nm
EM Slit:	2.5 nm
PMT Voltage:	600 V
Response:	Auto 
Corrected spectra:	Off
Shutter control:	On

Peak integration
Integration method:	Rectangular
Sensitivity:	1
Threshold:	1.000

Peaks
No.	Valley(nm)	Valley(Data)
1	485.4	14.30
2	497.8	74.28
3	506.8	158.0
4	509.8	167.2
5	513.4	189.9
6	515.0	186.9
7	520.8	198.6
8	523.0	199.9
9	526.4	190.9
10	528.8	176.7
11	532.4	178.0
12	535.0	177.1
13	536.8	175.3
14	539.6	170.5
15	544.0	162.5
16	546.0	165.3
17	549.4	157.5
18	553.2	154.9
19	556.4	151.4
20	558.6	135.9
21	561.2	140.1
22	563.2	141.5
23	567.0	126.1
24	570.2	108.3
25	575.0	98.06
26	579.8	91.83
27	581.2	91.21
28	584.6	80.62
29	588.6	67.87
30	592.6	66.54
31	594.2	67.54
32	595.4	63.69
33	603.2	49.14
34	604.6	48.91
35	606.6	49.18
36	610.8	40.75
37	613.6	37.10
38	616.4	40.52
39	619.0	39.21
40	623.6	28.65
41	625.6	28.98
42	629.6	29.11
43	632.6	23.87
44	639.4	17.08
45	644.0	16.26
46	648.2	15.28
47	652.6	13.61
48	655.8	15.57
49	657.0	14.06
50	659.0	12.25
51	661.0	10.59
52	664.2	11.94
53	667.0	8.427
54	670.2	9.898
55	674.6	8.442
56	680.4	9.166
57	684.2	7.267
58	687.2	7.952
59	689.4	7.829
60	692.6	6.126
61	697.0	5.566
62	699.4	6.078
63	703.4	5.227
64	709.2	5.368
65	711.0	6.717
66	713.0	7.194
67	716.6	6.152
68	719.8	5.743
69	721.8	5.827
70	724.2	6.314
71	727.4	5.576
72	729.8	5.159
73	732.8	5.827
74	735.8	4.885
75	739.0	4.786
76	742.4	5.194
77	745.0	4.605
78	746.8	5.904
79	750.2	4.425
80	754.8	3.584
81	759.2	3.369
82	764.0	3.673
83	766.0	5.864
84	768.6	4.858
85	771.8	5.579
86	775.0	3.551
87	776.6	5.057
88	780.0	5.121

Data Points
nm	Data
480.0	15.27
481.0	14.96
482.0	14.38
483.0	14.74
484.0	18.17
485.0	14.80
486.0	19.70
487.0	23.67
488.0	32.68
489.0	34.14
490.0	38.28
491.0	34.34
492.0	38.92
493.0	45.48
494.0	53.19
495.0	72.24
496.0	76.82
497.0	79.96
498.0	82.49
499.0	89.86
500.0	113.3
501.0	113.3
502.0	118.8
503.0	133.9
504.0	136.2
505.0	144.2
506.0	174.8
507.0	176.7
508.0	177.0
509.0	180.4
510.0	172.5
511.0	205.4
512.0	203.9
513.0	192.6
514.0	205.7
515.0	186.9
516.0	208.8
517.0	211.4
518.0	216.5
519.0	216.5
520.0	218.0
521.0	200.4
522.0	220.6
523.0	199.9
524.0	206.3
525.0	202.1
526.0	193.8
527.0	208.7
528.0	190.1
529.0	187.5
530.0	184.5
531.0	198.6
532.0	187.7
533.0	185.2
534.0	180.9
535.0	177.1
536.0	182.4
537.0	176.7
538.0	183.7
539.0	180.4
540.0	179.2
541.0	188.0
542.0	193.4
543.0	177.7
544.0	162.5
545.0	175.5
546.0	165.3
547.0	170.6
548.0	169.1
549.0	169.3
550.0	165.8
551.0	168.7
552.0	169.3
553.0	158.1
554.0	160.0
555.0	165.4
556.0	152.7
557.0	160.7
558.0	147.8
559.0	159.1
560.0	150.1
561.0	143.4
562.0	158.5
563.0	145.6
564.0	153.2
565.0	132.9
566.0	140.8
567.0	126.1
568.0	146.2
569.0	121.0
570.0	113.7
571.0	123.3
572.0	124.1
573.0	109.3
574.0	108.3
575.0	98.06
576.0	106.4
577.0	106.7
578.0	102.4
579.0	96.44
580.0	92.86
581.0	94.85
582.0	104.5
583.0	90.51
584.0	90.22
585.0	81.34
586.0	86.42
587.0	88.04
588.0	79.56
589.0	72.18
590.0	76.70
591.0	80.60
592.0	68.09
593.0	77.33
594.0	68.67
595.0	70.65
596.0	68.91
597.0	69.82
598.0	60.67
599.0	61.61
600.0	63.11
601.0	55.32
602.0	52.45
603.0	51.94
604.0	55.61
605.0	55.34
606.0	56.36
607.0	57.49
608.0	61.69
609.0	56.12
610.0	48.49
611.0	42.17
612.0	44.74
613.0	50.04
614.0	44.44
615.0	47.12
616.0	44.09
617.0	42.12
618.0	43.20
619.0	39.21
620.0	44.07
621.0	48.43
622.0	44.11
623.0	36.59
624.0	36.04
625.0	31.18
626.0	35.96
627.0	32.35
628.0	31.84
629.0	30.97
630.0	29.35
631.0	34.22
632.0	29.14
633.0	26.06
634.0	24.97
635.0	25.54
636.0	24.44
637.0	27.29
638.0	24.92
639.0	18.74
640.0	23.50
641.0	18.91
642.0	19.34
643.0	21.67
644.0	16.26
645.0	22.90
646.0	17.82
647.0	18.88
648.0	15.49
649.0	20.36
650.0	22.96
651.0	16.91
652.0	15.17
653.0	16.89
654.0	15.64
655.0	16.27
656.0	16.48
657.0	14.06
658.0	16.91
659.0	12.25
660.0	15.63
661.0	10.59
662.0	13.62
663.0	15.32
664.0	13.32
665.0	13.33
666.0	16.18
667.0	8.427
668.0	15.77
669.0	13.44
670.0	11.48
671.0	11.85
672.0	12.73
673.0	13.55
674.0	10.64
675.0	8.637
676.0	9.834
677.0	13.17
678.0	12.50
679.0	12.16
680.0	10.57
681.0	13.79
682.0	13.84
683.0	10.66
684.0	7.899
685.0	13.79
686.0	9.378
687.0	10.08
688.0	10.38
689.0	9.880
690.0	8.637
691.0	9.228
692.0	6.859
693.0	8.615
694.0	13.37
695.0	11.37
696.0	10.99
697.0	5.566
698.0	10.25
699.0	7.958
700.0	7.880
701.0	11.38
702.0	6.844
703.0	7.210
704.0	8.381
705.0	6.465
706.0	9.546
707.0	9.757
708.0	10.01
709.0	5.627
710.0	11.72
711.0	6.717
712.0	10.77
713.0	7.194
714.0	7.997
715.0	8.137
716.0	8.064
717.0	11.81
718.0	8.879
719.0	10.30
720.0	6.312
721.0	6.926
722.0	6.505
723.0	7.155
724.0	6.848
725.0	10.83
726.0	7.180
727.0	7.135
728.0	10.10
729.0	7.863
730.0	5.930
731.0	8.923
732.0	7.092
733.0	6.010
734.0	7.876
735.0	7.426
736.0	6.125
737.0	9.669
738.0	6.759
739.0	4.786
740.0	8.805
741.0	6.409
742.0	6.954
743.0	8.027
744.0	8.652
745.0	4.605
746.0	8.355
747.0	6.527
748.0	8.394
749.0	6.796
750.0	4.847
751.0	8.810
752.0	8.566
753.0	5.270
754.0	4.919
755.0	3.674
756.0	4.410
757.0	7.139
758.0	8.745
759.0	5.280
760.0	5.004
761.0	7.209
762.0	8.780
763.0	5.998
764.0	3.673
765.0	8.126
766.0	5.864
767.0	9.150
768.0	7.159
769.0	6.183
770.0	6.124
771.0	10.48
772.0	6.883
773.0	6.227
774.0	6.281
775.0	3.551
776.0	10.36
777.0	7.699
778.0	5.848
779.0	5.939
780.0	5.121

Sample:	'wa-14(EM)
File name:	20.FDS
Run Date:	'16:46:33, 07/11/2024
Operator:	WXH
Comment:	'

Instrument
Model:	F-4600 FL Spectrophotometer
Serial Number:	3080-002
ROM Version:	5J24000 02

Instrument Parameters
Measurement type:	Wavelength scan
Scan mode:	Emission
Data mode:	Fluorescence
EX WL:	460.0 nm
EM  Start WL:	480.0 nm
EM  End WL:	780.0 nm
Scan speed:	1200 nm/min
Delay:	0.0 s
EX Slit:	2.5 nm
EM Slit:	2.5 nm
PMT Voltage:	600 V
Response:	Auto 
Corrected spectra:	Off
Shutter control:	On

Peak integration
Integration method:	Rectangular
Sensitivity:	1
Threshold:	1.000

Peaks
No.	Valley(nm)	Valley(Data)
1	484.2	16.75
2	496.2	69.61
3	504.6	139.3
4	513.0	182.9
5	516.6	202.5
6	523.6	197.6
7	529.2	190.3
8	534.6	173.8
9	540.6	160.7
10	543.2	172.2
11	545.6	158.9
12	551.0	154.7
13	559.6	137.1
14	561.6	127.3
15	567.4	110.2
16	573.6	109.0
17	577.4	93.71
18	580.4	93.18
19	582.2	88.62
20	584.8	82.02
21	588.0	73.19
22	591.4	67.32
23	596.2	62.06
24	603.0	50.72
25	604.4	50.53
26	606.2	51.24
27	610.0	41.70
28	611.8	42.67
29	619.4	31.63
30	624.8	27.18
31	630.4	22.14
32	631.8	24.58
33	634.6	22.86
34	638.2	20.65
35	645.4	15.19
36	648.8	16.28
37	654.8	11.66
38	658.0	11.26
39	661.6	12.73
40	663.8	12.50
41	670.2	9.156
42	674.2	7.531
43	676.4	9.342
44	682.8	5.862
45	685.6	7.327
46	692.2	6.738
47	694.2	6.893
48	698.4	6.221
49	703.6	6.356
50	706.8	6.175
51	710.2	4.657
52	715.4	5.925
53	717.0	5.415
54	722.2	5.497
55	724.8	5.483
56	727.2	6.458
57	730.4	6.516
58	733.8	4.245
59	736.0	2.991
60	738.2	4.538
61	741.2	4.462
62	744.8	3.360
63	747.4	5.308
64	750.6	4.008
65	752.0	4.879
66	754.6	4.332
67	759.0	5.154
68	764.0	4.587
69	767.2	4.439
70	770.4	4.711
71	775.6	4.592

Data Points
nm	Data
480.0	11.12
481.0	15.45
482.0	13.74
483.0	19.39
484.0	18.44
485.0	21.98
486.0	23.51
487.0	26.67
488.0	27.11
489.0	36.46
490.0	34.00
491.0	39.76
492.0	46.19
493.0	45.61
494.0	60.98
495.0	72.36
496.0	78.37
497.0	85.20
498.0	89.44
499.0	99.20
500.0	96.99
501.0	117.9
502.0	125.6
503.0	139.7
504.0	150.6
505.0	149.7
506.0	148.6
507.0	163.5
508.0	176.3
509.0	189.6
510.0	190.7
511.0	207.4
512.0	194.3
513.0	182.9
514.0	217.0
515.0	212.9
516.0	206.9
517.0	207.5
518.0	212.5
519.0	206.5
520.0	202.5
521.0	216.6
522.0	205.5
523.0	204.8
524.0	199.9
525.0	207.4
526.0	205.7
527.0	216.2
528.0	188.9
529.0	195.2
530.0	200.0
531.0	195.5
532.0	197.0
533.0	182.2
534.0	188.3
535.0	184.3
536.0	180.1
537.0	186.7
538.0	192.3
539.0	171.6
540.0	175.7
541.0	170.6
542.0	180.3
543.0	173.2
544.0	190.9
545.0	161.1
546.0	175.4
547.0	178.8
548.0	183.5
549.0	168.5
550.0	165.1
551.0	154.7
552.0	166.8
553.0	176.1
554.0	165.4
555.0	180.5
556.0	162.4
557.0	161.1
558.0	147.4
559.0	139.0
560.0	143.7
561.0	153.3
562.0	139.3
563.0	151.7
564.0	150.7
565.0	145.9
566.0	135.6
567.0	126.5
568.0	110.9
569.0	136.0
570.0	131.0
571.0	122.0
572.0	117.1
573.0	113.7
574.0	117.8
575.0	117.5
576.0	106.1
577.0	100.4
578.0	100.1
579.0	102.0
580.0	98.87
581.0	97.78
582.0	94.32
583.0	95.05
584.0	93.86
585.0	87.39
586.0	87.09
587.0	87.55
588.0	73.19
589.0	80.14
590.0	73.59
591.0	70.32
592.0	73.68
593.0	77.80
594.0	78.79
595.0	71.91
596.0	63.86
597.0	65.20
598.0	64.39
599.0	64.99
600.0	59.31
601.0	59.94
602.0	57.71
603.0	50.72
604.0	60.05
605.0	53.75
606.0	51.29
607.0	53.11
608.0	56.28
609.0	44.76
610.0	41.70
611.0	49.68
612.0	42.96
613.0	47.28
614.0	48.14
615.0	49.54
616.0	39.48
617.0	40.32
618.0	39.99
619.0	37.26
620.0	36.94
621.0	40.53
622.0	39.82
623.0	36.52
624.0	30.37
625.0	29.96
626.0	36.11
627.0	35.49
628.0	32.41
629.0	34.63
630.0	26.19
631.0	28.81
632.0	26.21
633.0	24.54
634.0	28.91
635.0	26.38
636.0	27.82
637.0	23.79
638.0	23.24
639.0	24.26
640.0	23.76
641.0	25.11
642.0	23.10
643.0	21.92
644.0	20.36
645.0	16.64
646.0	20.53
647.0	23.36
648.0	20.64
649.0	20.59
650.0	23.76
651.0	20.02
652.0	19.69
653.0	21.20
654.0	15.44
655.0	12.75
656.0	17.25
657.0	13.92
658.0	11.26
659.0	18.13
660.0	14.46
661.0	13.36
662.0	15.03
663.0	15.47
664.0	13.53
665.0	13.65
666.0	15.77
667.0	12.79
668.0	11.29
669.0	11.43
670.0	11.65
671.0	13.62
672.0	16.64
673.0	12.15
674.0	10.27
675.0	15.35
676.0	13.93
677.0	10.91
678.0	10.33
679.0	9.514
680.0	10.60
681.0	11.45
682.0	10.10
683.0	6.868
684.0	12.06
685.0	8.805
686.0	10.45
687.0	8.863
688.0	9.429
689.0	7.824
690.0	9.749
691.0	10.05
692.0	7.156
693.0	10.06
694.0	7.668
695.0	14.56
696.0	11.57
697.0	8.137
698.0	7.147
699.0	11.61
700.0	10.23
701.0	8.773
702.0	7.780
703.0	8.128
704.0	7.750
705.0	8.411
706.0	9.302
707.0	9.237
708.0	8.327
709.0	6.909
710.0	5.684
711.0	9.445
712.0	9.432
713.0	8.594
714.0	11.10
715.0	6.768
716.0	10.27
717.0	5.415
718.0	6.593
719.0	7.872
720.0	8.452
721.0	9.411
722.0	6.665
723.0	7.567
724.0	10.83
725.0	6.183
726.0	9.196
727.0	7.149
728.0	7.149
729.0	9.255
730.0	8.284
731.0	10.03
732.0	10.09
733.0	6.434
734.0	6.821
735.0	6.032
736.0	2.991
737.0	7.242
738.0	5.568
739.0	10.10
740.0	7.360
741.0	5.943
742.0	7.079
743.0	8.616
744.0	7.967
745.0	4.177
746.0	7.698
747.0	6.832
748.0	7.801
749.0	6.294
750.0	5.360
751.0	6.035
752.0	4.879
753.0	8.434
754.0	7.420
755.0	6.789
756.0	7.032
757.0	5.265
758.0	7.485
759.0	5.154
760.0	8.843
761.0	8.438
762.0	8.576
763.0	8.544
764.0	4.587
765.0	10.40
766.0	7.676
767.0	5.418
768.0	6.027
769.0	6.914
770.0	6.394
771.0	6.241
772.0	7.778
773.0	8.071
774.0	10.36
775.0	7.738
776.0	5.031
777.0	5.851
778.0	7.263
779.0	8.751
780.0	11.60

Sample:	'wa-15(EM)
File name:	20.FDS
Run Date:	'16:47:03, 07/11/2024
Operator:	WXH
Comment:	'

Instrument
Model:	F-4600 FL Spectrophotometer
Serial Number:	3080-002
ROM Version:	5J24000 02

Instrument Parameters
Measurement type:	Wavelength scan
Scan mode:	Emission
Data mode:	Fluorescence
EX WL:	460.0 nm
EM  Start WL:	480.0 nm
EM  End WL:	780.0 nm
Scan speed:	1200 nm/min
Delay:	0.0 s
EX Slit:	2.5 nm
EM Slit:	2.5 nm
PMT Voltage:	600 V
Response:	Auto 
Corrected spectra:	Off
Shutter control:	On

Peak integration
Integration method:	Rectangular
Sensitivity:	1
Threshold:	1.000

Peaks
No.	Valley(nm)	Valley(Data)
1	487.6	19.56
2	492.0	37.73
3	496.8	64.21
4	503.8	130.8
5	506.4	157.8
6	511.6	186.2
7	517.0	190.6
8	519.8	197.3
9	521.6	185.3
10	528.8	183.4
11	533.8	176.0
12	536.8	169.8
13	539.4	180.1
14	544.2	163.5
15	545.2	156.3
16	547.2	165.7
17	550.8	154.8
18	553.6	156.1
19	557.8	144.5
20	564.4	122.8
21	570.2	111.7
22	571.8	116.2
23	575.6	94.98
24	582.0	84.87
25	583.8	81.55
26	588.2	71.30
27	590.8	64.95
28	596.8	60.77
29	601.2	48.97
30	606.4	46.32
31	612.6	37.82
32	617.0	40.92
33	622.2	33.45
34	625.2	30.93
35	630.4	26.18
36	632.6	24.66
37	636.0	22.22
38	639.4	19.78
39	642.4	22.63
40	647.4	13.32
41	650.6	16.67
42	653.2	13.04
43	655.6	12.35
44	657.8	14.17
45	661.0	12.42
46	664.6	10.58
47	666.6	12.02
48	673.2	10.01
49	679.4	6.784
50	683.0	7.863
51	686.2	7.826
52	689.2	8.762
53	691.0	7.884
54	696.4	4.200
55	705.2	4.222
56	707.6	7.598
57	709.8	5.416
58	712.2	6.865
59	716.6	5.736
60	719.4	6.975
61	724.8	3.180
62	726.8	4.530
63	733.0	5.443
64	736.0	6.133
65	738.2	4.919
66	740.6	4.702
67	746.0	5.093
68	749.8	4.065
69	752.6	7.372
70	755.0	5.089
71	758.0	6.206
72	760.8	4.637
73	767.2	4.213
74	771.0	4.717
75	774.2	4.045
76	780.0	5.905

Data Points
nm	Data
480.0	8.415
481.0	8.979
482.0	13.27
483.0	19.73
484.0	17.45
485.0	21.44
486.0	19.11
487.0	23.86
488.0	22.15
489.0	24.26
490.0	32.70
491.0	38.11
492.0	37.73
493.0	54.00
494.0	52.03
495.0	73.83
496.0	68.30
497.0	68.10
498.0	86.12
499.0	86.64
500.0	93.38
501.0	125.2
502.0	131.0
503.0	144.3
504.0	135.0
505.0	149.1
506.0	169.9
507.0	162.5
508.0	173.1
509.0	180.5
510.0	200.9
511.0	209.1
512.0	199.3
513.0	210.9
514.0	216.6
515.0	215.3
516.0	200.0
517.0	190.6
518.0	200.0
519.0	209.0
520.0	202.8
521.0	191.2
522.0	198.5
523.0	202.6
524.0	206.0
525.0	209.8
526.0	200.2
527.0	203.3
528.0	201.1
529.0	184.7
530.0	192.2
531.0	194.9
532.0	187.2
533.0	186.9
534.0	176.1
535.0	182.8
536.0	180.8
537.0	182.7
538.0	178.3
539.0	189.3
540.0	181.6
541.0	186.0
542.0	190.3
543.0	179.5
544.0	176.4
545.0	171.6
546.0	177.2
547.0	167.3
548.0	178.3
549.0	166.7
550.0	161.4
551.0	160.0
552.0	164.2
553.0	163.9
554.0	169.7
555.0	156.5
556.0	154.4
557.0	162.8
558.0	144.6
559.0	151.4
560.0	145.1
561.0	153.7
562.0	138.9
563.0	139.6
564.0	132.5
565.0	133.5
566.0	147.2
567.0	131.2
568.0	122.4
569.0	118.0
570.0	113.8
571.0	122.4
572.0	116.7
573.0	119.2
574.0	104.2
575.0	109.3
576.0	106.0
577.0	101.7
578.0	103.4
579.0	101.6
580.0	86.09
581.0	87.27
582.0	84.87
583.0	96.58
584.0	86.30
585.0	91.51
586.0	89.12
587.0	87.84
588.0	74.10
589.0	75.50
590.0	75.07
591.0	66.24
592.0	74.82
593.0	76.58
594.0	74.25
595.0	68.61
596.0	69.85
597.0	63.86
598.0	68.53
599.0	67.68
600.0	62.72
601.0	53.25
602.0	53.26
603.0	57.85
604.0	62.15
605.0	54.61
606.0	46.99
607.0	47.58
608.0	51.05
609.0	47.26
610.0	48.23
611.0	46.80
612.0	43.11
613.0	42.25
614.0	48.45
615.0	45.80
616.0	49.48
617.0	40.92
618.0	52.30
619.0	45.54
620.0	40.11
621.0	38.71
622.0	37.72
623.0	38.04
624.0	34.45
625.0	31.09
626.0	37.65
627.0	32.13
628.0	38.79
629.0	32.09
630.0	31.07
631.0	29.37
632.0	29.98
633.0	25.72
634.0	26.86
635.0	28.76
636.0	22.22
637.0	28.04
638.0	21.46
639.0	24.20
640.0	24.81
641.0	21.05
642.0	27.02
643.0	26.13
644.0	27.37
645.0	20.77
646.0	19.07
647.0	15.68
648.0	20.07
649.0	16.87
650.0	18.63
651.0	17.02
652.0	17.76
653.0	15.59
654.0	17.77
655.0	17.26
656.0	12.60
657.0	16.06
658.0	14.55
659.0	14.58
660.0	17.56
661.0	12.42
662.0	16.84
663.0	19.33
664.0	13.00
665.0	14.46
666.0	13.95
667.0	14.55
668.0	15.04
669.0	13.64
670.0	13.11
671.0	13.69
672.0	12.27
673.0	11.34
674.0	13.92
675.0	11.15
676.0	9.371
677.0	9.053
678.0	9.391
679.0	9.139
680.0	9.522
681.0	12.65
682.0	13.74
683.0	7.863
684.0	11.09
685.0	12.48
686.0	8.868
687.0	9.908
688.0	12.06
689.0	8.827
690.0	9.992
691.0	7.884
692.0	10.53
693.0	8.988
694.0	7.889
695.0	8.397
696.0	6.877
697.0	5.568
698.0	8.095
699.0	8.327
700.0	8.276
701.0	9.492
702.0	9.628
703.0	8.533
704.0	9.724
705.0	5.912
706.0	9.330
707.0	11.01
708.0	8.573
709.0	10.36
710.0	7.625
711.0	10.57
712.0	7.048
713.0	7.879
714.0	10.34
715.0	10.56
716.0	7.948
717.0	7.069
718.0	9.932
719.0	7.658
720.0	9.855
721.0	10.97
722.0	11.55
723.0	7.398
724.0	5.540
725.0	3.731
726.0	9.495
727.0	5.627
728.0	7.765
729.0	8.544
730.0	10.73
731.0	12.90
732.0	8.727
733.0	5.443
734.0	7.055
735.0	10.83
736.0	6.133
737.0	7.910
738.0	5.740
739.0	7.584
740.0	5.444
741.0	7.566
742.0	7.483
743.0	6.295
744.0	10.07
745.0	5.814
746.0	5.093
747.0	6.529
748.0	10.08
749.0	6.214
750.0	7.281
751.0	4.225
752.0	9.896
753.0	7.748
754.0	7.707
755.0	5.089
756.0	10.31
757.0	6.613
758.0	6.206
759.0	7.613
760.0	6.488
761.0	4.749
762.0	6.401
763.0	9.408
764.0	9.897
765.0	4.533
766.0	5.049
767.0	5.604
768.0	5.911
769.0	7.061
770.0	5.260
771.0	4.717
772.0	6.240
773.0	7.465
774.0	4.251
775.0	6.265
776.0	8.373
777.0	6.102
778.0	4.445
779.0	4.689
780.0	5.905

Sample:	'wa-16(EM)
File name:	20.FDS
Run Date:	'16:47:34, 07/11/2024
Operator:	WXH
Comment:	'

Instrument
Model:	F-4600 FL Spectrophotometer
Serial Number:	3080-002
ROM Version:	5J24000 02

Instrument Parameters
Measurement type:	Wavelength scan
Scan mode:	Emission
Data mode:	Fluorescence
EX WL:	460.0 nm
EM  Start WL:	480.0 nm
EM  End WL:	780.0 nm
Scan speed:	1200 nm/min
Delay:	0.0 s
EX Slit:	2.5 nm
EM Slit:	2.5 nm
PMT Voltage:	600 V
Response:	Auto 
Corrected spectra:	Off
Shutter control:	On

Peak integration
Integration method:	Rectangular
Sensitivity:	1
Threshold:	1.000

Peaks
No.	Valley(nm)	Valley(Data)
1	483.2	12.82
2	493.4	48.91
3	509.2	158.3
4	513.6	195.2
5	515.8	193.7
6	521.4	196.1
7	526.4	187.4
8	528.8	168.7
9	532.2	188.5
10	538.2	158.8
11	542.4	169.3
12	549.8	154.2
13	553.4	155.3
14	558.8	141.1
15	563.0	139.4
16	567.2	117.7
17	571.8	105.3
18	581.0	84.38
19	584.4	76.50
20	588.0	78.62
21	591.8	67.99
22	599.8	52.00
23	604.8	45.17
24	607.4	41.77
25	609.6	41.10
26	612.6	42.07
27	616.0	32.73
28	617.4	38.45
29	620.8	33.11
30	623.0	31.59
31	628.2	24.35
32	630.2	25.06
33	631.2	26.28
34	634.4	20.13
35	636.4	21.88
36	639.4	21.61
37	641.8	18.78
38	649.4	16.57
39	655.6	12.16
40	659.4	12.92
41	662.8	11.10
42	665.8	11.44
43	668.6	10.71
44	671.2	10.53
45	674.4	10.25
46	677.4	8.661
47	680.0	8.698
48	685.4	6.185
49	691.4	4.699
50	692.8	6.693
51	698.0	4.475
52	702.2	7.063
53	705.6	6.008
54	708.4	4.980
55	712.4	5.285
56	716.4	5.424
57	720.4	4.166
58	724.2	4.988
59	725.8	4.463
60	729.4	6.600
61	732.4	5.405
62	736.0	5.942
63	738.6	6.524
64	742.2	6.062
65	745.4	7.978
66	749.4	5.675
67	753.2	3.803
68	757.2	5.112
69	761.0	7.670
70	765.6	4.470
71	769.0	4.125
72	771.6	5.329
73	776.4	3.279

Data Points
nm	Data
480.0	8.372
481.0	11.23
482.0	14.00
483.0	12.94
484.0	15.94
485.0	16.23
486.0	20.92
487.0	27.74
488.0	26.06
489.0	26.83
490.0	33.30
491.0	41.15
492.0	43.84
493.0	54.36
494.0	52.94
495.0	56.91
496.0	68.70
497.0	78.04
498.0	78.54
499.0	89.21
500.0	100.1
501.0	111.2
502.0	133.4
503.0	130.8
504.0	135.9
505.0	157.7
506.0	163.2
507.0	167.4
508.0	167.8
509.0	162.8
510.0	174.3
511.0	188.6
512.0	184.9
513.0	206.6
514.0	202.1
515.0	201.2
516.0	197.5
517.0	194.7
518.0	214.3
519.0	225.0
520.0	211.2
521.0	201.2
522.0	210.9
523.0	220.9
524.0	214.1
525.0	207.1
526.0	191.6
527.0	202.4
528.0	187.8
529.0	173.9
530.0	180.8
531.0	201.1
532.0	190.8
533.0	188.3
534.0	176.1
535.0	178.1
536.0	186.8
537.0	176.5
538.0	170.1
539.0	173.4
540.0	184.2
541.0	175.4
542.0	178.8
543.0	184.4
544.0	173.1
545.0	171.2
546.0	171.2
547.0	171.0
548.0	171.2
549.0	169.0
550.0	155.1
551.0	174.8
552.0	161.6
553.0	166.6
554.0	159.7
555.0	167.0
556.0	162.8
557.0	153.5
558.0	156.3
559.0	145.0
560.0	149.5
561.0	159.2
562.0	150.3
563.0	139.4
564.0	157.6
565.0	136.2
566.0	140.7
567.0	122.0
568.0	123.5
569.0	138.1
570.0	123.3
571.0	116.2
572.0	113.4
573.0	122.5
574.0	114.0
575.0	114.3
576.0	107.9
577.0	109.3
578.0	102.3
579.0	102.9
580.0	89.24
581.0	84.38
582.0	95.11
583.0	86.66
584.0	92.49
585.0	78.39
586.0	85.03
587.0	91.68
588.0	78.62
589.0	82.28
590.0	75.54
591.0	76.10
592.0	70.40
593.0	73.38
594.0	74.01
595.0	69.95
596.0	72.18
597.0	66.34
598.0	63.91
599.0	55.41
600.0	53.61
601.0	58.43
602.0	64.01
603.0	52.20
604.0	47.02
605.0	46.32
606.0	52.38
607.0	55.71
608.0	50.13
609.0	54.12
610.0	51.67
611.0	47.41
612.0	45.50
613.0	42.20
614.0	42.52
615.0	47.40
616.0	32.73
617.0	47.53
618.0	40.93
619.0	44.98
620.0	39.79
621.0	33.89
622.0	43.16
623.0	31.59
624.0	33.24
625.0	38.39
626.0	35.80
627.0	27.02
628.0	27.55
629.0	28.11
630.0	29.17
631.0	26.47
632.0	30.75
633.0	28.57
634.0	22.69
635.0	25.86
636.0	25.09
637.0	23.09
638.0	25.97
639.0	24.71
640.0	23.34
641.0	21.96
642.0	20.46
643.0	20.76
644.0	23.41
645.0	23.23
646.0	20.03
647.0	25.00
648.0	21.40
649.0	19.39
650.0	21.09
651.0	20.67
652.0	18.67
653.0	15.44
654.0	15.33
655.0	13.46
656.0	15.74
657.0	17.77
658.0	15.62
659.0	15.04
660.0	18.94
661.0	13.66
662.0	14.32
663.0	14.99
664.0	19.31
665.0	16.12
666.0	12.42
667.0	14.45
668.0	12.56
669.0	11.27
670.0	11.73
671.0	11.64
672.0	14.41
673.0	15.40
674.0	12.90
675.0	14.32
676.0	11.81
677.0	9.673
678.0	11.20
679.0	13.83
680.0	8.698
681.0	13.03
682.0	11.92
683.0	12.57
684.0	8.504
685.0	7.440
686.0	9.947
687.0	10.00
688.0	10.64
689.0	10.52
690.0	8.884
691.0	6.869
692.0	13.80
693.0	8.739
694.0	9.379
695.0	10.37
696.0	10.64
697.0	9.404
698.0	4.475
699.0	8.018
700.0	10.17
701.0	10.25
702.0	7.721
703.0	11.67
704.0	7.491
705.0	7.251
706.0	6.873
707.0	10.43
708.0	6.301
709.0	7.557
710.0	7.845
711.0	7.358
712.0	7.009
713.0	9.103
714.0	6.789
715.0	10.02
716.0	6.982
717.0	7.783
718.0	9.800
719.0	10.33
720.0	6.933
721.0	5.189
722.0	7.710
723.0	7.998
724.0	5.529
725.0	7.122
726.0	6.220
727.0	7.581
728.0	11.76
729.0	7.915
730.0	10.94
731.0	6.759
732.0	7.906
733.0	8.878
734.0	9.145
735.0	10.17
736.0	5.942
737.0	9.449
738.0	8.060
739.0	7.061
740.0	5.888
741.0	7.020
742.0	6.480
743.0	6.488
744.0	9.326
745.0	8.357
746.0	9.551
747.0	10.57
748.0	8.904
749.0	6.111
750.0	7.350
751.0	7.553
752.0	6.077
753.0	3.926
754.0	6.389
755.0	7.721
756.0	8.677
757.0	5.584
758.0	6.632
759.0	5.358
760.0	11.91
761.0	7.670
762.0	8.523
763.0	11.11
764.0	6.045
765.0	8.973
766.0	6.971
767.0	8.283
768.0	7.744
769.0	4.125
770.0	6.237
771.0	6.747
772.0	7.052
773.0	5.623
774.0	7.629
775.0	6.744
776.0	6.728
777.0	4.503
778.0	6.969
779.0	7.015
780.0	5.135

Sample:	'wa-17(EM)
File name:	20.FDS
Run Date:	'16:48:04, 07/11/2024
Operator:	WXH
Comment:	'

Instrument
Model:	F-4600 FL Spectrophotometer
Serial Number:	3080-002
ROM Version:	5J24000 02

Instrument Parameters
Measurement type:	Wavelength scan
Scan mode:	Emission
Data mode:	Fluorescence
EX WL:	460.0 nm
EM  Start WL:	480.0 nm
EM  End WL:	780.0 nm
Scan speed:	1200 nm/min
Delay:	0.0 s
EX Slit:	2.5 nm
EM Slit:	2.5 nm
PMT Voltage:	600 V
Response:	Auto 
Corrected spectra:	Off
Shutter control:	On

Peak integration
Integration method:	Rectangular
Sensitivity:	1
Threshold:	1.000

Peaks
No.	Valley(nm)	Valley(Data)
1	484.8	18.28
2	498.6	84.91
3	509.6	172.2
4	511.2	184.3
5	519.0	198.2
6	522.6	200.5
7	526.6	184.1
8	530.2	186.1
9	533.4	179.7
10	541.0	167.4
11	544.8	163.9
12	547.0	165.4
13	548.8	160.8
14	551.8	156.7
15	557.8	143.0
16	559.8	139.1
17	567.4	121.8
18	570.8	110.6
19	573.4	113.8
20	575.4	92.76
21	578.6	92.62
22	587.8	76.36
23	592.0	60.40
24	593.8	56.30
25	598.0	59.98
26	601.4	51.96
27	605.2	47.43
28	607.4	48.73
29	610.4	42.53
30	614.6	35.90
31	618.0	33.63
32	622.2	29.38
33	624.4	30.81
34	625.8	29.70
35	628.4	27.54
36	630.6	23.87
37	633.4	23.65
38	637.6	18.20
39	639.0	20.50
40	645.8	15.61
41	654.6	12.38
42	657.4	14.75
43	659.8	12.43
44	663.8	8.935
45	666.4	8.999
46	668.6	9.406
47	672.4	11.16
48	677.4	6.053
49	681.4	6.910
50	686.0	8.484
51	690.0	8.736
52	691.6	7.377
53	697.4	7.058
54	699.0	5.102
55	702.2	7.541
56	707.4	4.542
57	709.8	5.668
58	712.0	6.646
59	715.0	5.338
60	717.8	4.822
61	721.0	4.457
62	723.4	6.429
63	727.6	5.683
64	730.4	5.861
65	735.6	4.406
66	744.0	5.774
67	746.2	5.494
68	748.8	5.555
69	750.8	6.442
70	752.6	5.541
71	757.4	4.775
72	762.2	2.594
73	766.0	3.953
74	767.6	3.601
75	771.2	4.585
76	773.8	5.946
77	774.6	3.977
78	778.6	5.573

Data Points
nm	Data
480.0	22.12
481.0	14.39
482.0	17.33
483.0	14.54
484.0	18.91
485.0	19.66
486.0	20.55
487.0	23.46
488.0	26.35
489.0	32.85
490.0	30.28
491.0	35.08
492.0	44.01
493.0	53.70
494.0	61.78
495.0	72.14
496.0	75.80
497.0	82.92
498.0	92.32
499.0	90.73
500.0	98.36
501.0	111.2
502.0	130.1
503.0	143.5
504.0	140.4
505.0	150.6
506.0	148.6
507.0	172.2
508.0	178.0
509.0	188.5
510.0	192.8
511.0	184.9
512.0	187.8
513.0	213.4
514.0	211.8
515.0	217.1
516.0	222.4
517.0	209.1
518.0	203.0
519.0	198.2
520.0	213.0
521.0	209.3
522.0	203.9
523.0	220.2
524.0	200.3
525.0	203.0
526.0	203.0
527.0	211.3
528.0	202.0
529.0	193.5
530.0	192.9
531.0	203.7
532.0	197.9
533.0	186.0
534.0	192.2
535.0	197.2
536.0	187.6
537.0	184.9
538.0	185.4
539.0	192.1
540.0	177.7
541.0	167.4
542.0	180.2
543.0	181.2
544.0	174.8
545.0	176.3
546.0	177.1
547.0	165.4
548.0	173.9
549.0	161.6
550.0	171.0
551.0	162.8
552.0	159.7
553.0	164.4
554.0	164.6
555.0	164.2
556.0	154.9
557.0	148.5
558.0	150.5
559.0	151.2
560.0	139.3
561.0	144.8
562.0	149.4
563.0	151.2
564.0	146.7
565.0	144.3
566.0	130.0
567.0	124.1
568.0	128.1
569.0	131.3
570.0	121.6
571.0	113.5
572.0	121.4
573.0	120.7
574.0	117.6
575.0	111.6
576.0	100.6
577.0	107.7
578.0	101.8
579.0	94.91
580.0	104.5
581.0	107.0
582.0	92.05
583.0	90.93
584.0	81.45
585.0	82.17
586.0	83.95
587.0	80.28
588.0	77.72
589.0	81.77
590.0	81.94
591.0	74.41
592.0	60.40
593.0	71.71
594.0	62.58
595.0	66.88
596.0	66.27
597.0	64.73
598.0	59.98
599.0	65.44
600.0	51.85
601.0	53.44
602.0	56.76
603.0	52.01
604.0	57.80
605.0	54.88
606.0	53.68
607.0	49.25
608.0	57.87
609.0	55.88
610.0	47.28
611.0	48.60
612.0	53.64
613.0	49.00
614.0	42.55
615.0	42.10
616.0	38.04
617.0	37.58
618.0	33.63
619.0	38.60
620.0	37.70
621.0	39.57
622.0	33.90
623.0	37.36
624.0	34.60
625.0	38.97
626.0	30.32
627.0	33.50
628.0	29.97
629.0	37.10
630.0	33.70
631.0	29.17
632.0	29.12
633.0	24.76
634.0	25.14
635.0	26.38
636.0	23.26
637.0	20.76
638.0	24.16
639.0	20.50
640.0	20.91
641.0	23.85
642.0	27.61
643.0	24.83
644.0	23.31
645.0	19.68
646.0	16.16
647.0	18.20
648.0	21.99
649.0	18.71
650.0	16.51
651.0	17.49
652.0	16.18
653.0	14.89
654.0	18.79
655.0	14.52
656.0	18.46
657.0	16.26
658.0	17.00
659.0	14.48
660.0	14.06
661.0	16.16
662.0	16.94
663.0	12.39
664.0	10.58
665.0	15.49
666.0	12.18
667.0	15.13
668.0	13.93
669.0	10.58
670.0	14.30
671.0	17.13
672.0	12.63
673.0	12.18
674.0	10.63
675.0	11.90
676.0	11.58
677.0	8.259
678.0	10.67
679.0	12.61
680.0	14.68
681.0	9.343
682.0	8.268
683.0	11.46
684.0	11.30
685.0	12.39
686.0	8.484
687.0	10.78
688.0	11.14
689.0	9.843
690.0	8.736
691.0	11.62
692.0	9.813
693.0	8.874
694.0	9.637
695.0	11.05
696.0	7.074
697.0	9.392
698.0	8.300
699.0	5.102
700.0	10.26
701.0	9.540
702.0	8.639
703.0	8.446
704.0	13.18
705.0	12.16
706.0	8.849
707.0	5.297
708.0	9.136
709.0	9.488
710.0	7.141
711.0	9.571
712.0	6.646
713.0	8.429
714.0	6.162
715.0	5.338
716.0	8.696
717.0	7.453
718.0	6.325
719.0	9.717
720.0	5.878
721.0	4.457
722.0	11.61
723.0	7.523
724.0	7.514
725.0	10.30
726.0	7.822
727.0	7.467
728.0	6.790
729.0	10.91
730.0	7.068
731.0	9.578
732.0	8.055
733.0	8.896
734.0	8.029
735.0	9.064
736.0	5.538
737.0	6.651
738.0	5.973
739.0	9.628
740.0	8.070
741.0	8.010
742.0	7.236
743.0	7.833
744.0	5.774
745.0	5.062
746.0	7.712
747.0	6.261
748.0	7.502
749.0	5.982
750.0	10.42
751.0	7.513
752.0	9.085
753.0	5.619
754.0	8.101
755.0	8.740
756.0	8.795
757.0	5.040
758.0	6.650
759.0	5.145
760.0	8.128
761.0	5.001
762.0	3.367
763.0	4.539
764.0	5.426
765.0	6.512
766.0	3.953
767.0	6.327
768.0	4.910
769.0	7.595
770.0	8.223
771.0	6.033
772.0	7.440
773.0	6.866
774.0	7.266
775.0	4.679
776.0	9.590
777.0	11.40
778.0	7.085
779.0	6.589
780.0	6.702

Sample:	'wa-18(EM)
File name:	20.FDS
Run Date:	'16:48:34, 07/11/2024
Operator:	WXH
Comment:	'

Instrument
Model:	F-4600 FL Spectrophotometer
Serial Number:	3080-002
ROM Version:	5J24000 02

Instrument Parameters
Measurement type:	Wavelength scan
Scan mode:	Emission
Data mode:	Fluorescence
EX WL:	460.0 nm
EM  Start WL:	480.0 nm
EM  End WL:	780.0 nm
Scan speed:	1200 nm/min
Delay:	0.0 s
EX Slit:	2.5 nm
EM Slit:	2.5 nm
PMT Voltage:	600 V
Response:	Auto 
Corrected spectra:	Off
Shutter control:	On

Peak integration
Integration method:	Rectangular
Sensitivity:	1
Threshold:	1.000

Peaks
No.	Valley(nm)	Valley(Data)
1	506.8	160.4
2	509.4	183.4
3	514.6	189.1
4	518.0	200.6
5	522.8	189.0
6	527.0	188.9
7	532.4	176.9
8	536.8	174.0
9	539.4	181.4
10	545.2	157.6
11	548.6	159.0
12	551.8	157.7
13	556.2	143.6
14	558.0	147.0
15	560.8	132.5
16	565.4	122.4
17	572.2	98.80
18	576.4	92.95
19	579.2	87.36
20	584.2	83.34
21	587.2	67.44
22	591.6	67.31
23	596.6	61.05
24	599.4	51.57
25	603.2	49.31
26	609.6	42.99
27	613.0	42.16
28	617.0	41.82
29	620.0	34.66
30	624.4	27.17
31	627.8	29.42
32	630.8	24.06
33	634.6	26.01
34	637.0	23.14
35	641.2	18.07
36	644.4	17.13
37	647.6	13.15
38	650.4	17.92
39	653.0	11.15
40	654.8	13.99
41	656.4	10.71
42	660.6	15.15
43	663.2	10.54
44	668.2	11.72
45	671.4	8.279
46	674.8	9.510
47	680.2	5.453
48	684.8	9.481
49	692.0	4.724
50	694.8	8.189
51	699.2	9.538
52	702.8	6.391
53	704.4	6.119
54	707.6	6.224
55	710.4	6.434
56	714.0	7.195
57	716.0	6.412
58	720.2	7.162
59	723.0	5.669
60	724.4	7.603
61	726.8	5.278
62	730.0	4.258
63	731.6	5.736
64	733.8	3.594
65	736.6	5.474
66	739.8	6.251
67	742.6	5.485
68	745.2	4.678
69	748.4	4.213
70	752.4	4.998
71	754.0	4.796
72	756.0	4.591
73	757.8	4.563
74	761.6	5.555
75	763.2	5.409
76	765.0	6.525
77	767.4	4.412
78	770.6	5.162
79	773.8	5.570
80	777.8	3.213

Data Points
nm	Data
480.0	12.21
481.0	17.22
482.0	16.35
483.0	15.48
484.0	16.52
485.0	15.51
486.0	22.18
487.0	24.45
488.0	28.55
489.0	27.29
490.0	36.11
491.0	41.91
492.0	51.15
493.0	55.41
494.0	55.73
495.0	59.36
496.0	76.55
497.0	83.52
498.0	77.89
499.0	99.84
500.0	98.99
501.0	118.3
502.0	122.5
503.0	134.3
504.0	151.7
505.0	150.3
506.0	184.7
507.0	164.7
508.0	183.7
509.0	207.2
510.0	194.5
511.0	208.6
512.0	211.3
513.0	195.5
514.0	201.2
515.0	203.2
516.0	208.7
517.0	218.4
518.0	200.6
519.0	212.7
520.0	218.0
521.0	220.0
522.0	203.6
523.0	193.9
524.0	211.5
525.0	192.6
526.0	196.7
527.0	188.9
528.0	197.9
529.0	210.7
530.0	195.7
531.0	186.8
532.0	188.3
533.0	187.5
534.0	193.4
535.0	187.4
536.0	177.1
537.0	186.1
538.0	182.7
539.0	184.1
540.0	190.1
541.0	196.8
542.0	186.3
543.0	190.1
544.0	188.6
545.0	157.7
546.0	174.6
547.0	178.7
548.0	169.7
549.0	169.3
550.0	165.2
551.0	161.1
552.0	159.8
553.0	159.4
554.0	160.4
555.0	151.8
556.0	150.4
557.0	151.8
558.0	147.0
559.0	161.6
560.0	149.6
561.0	136.3
562.0	137.6
563.0	149.4
564.0	134.0
565.0	132.3
566.0	136.0
567.0	127.3
568.0	137.4
569.0	129.2
570.0	118.5
571.0	100.0
572.0	105.0
573.0	108.9
574.0	110.1
575.0	109.6
576.0	99.19
577.0	107.7
578.0	98.80
579.0	91.30
580.0	92.90
581.0	108.5
582.0	93.24
583.0	92.86
584.0	85.97
585.0	98.75
586.0	81.23
587.0	69.92
588.0	83.25
589.0	72.86
590.0	74.73
591.0	72.84
592.0	69.62
593.0	71.94
594.0	73.83
595.0	74.78
596.0	68.56
597.0	63.13
598.0	65.41
599.0	59.72
600.0	54.44
601.0	59.71
602.0	58.88
603.0	57.63
604.0	53.80
605.0	56.04
606.0	64.85
607.0	53.48
608.0	47.81
609.0	45.23
610.0	53.40
611.0	46.07
612.0	45.47
613.0	42.16
614.0	53.14
615.0	53.36
616.0	51.51
617.0	41.82
618.0	45.19
619.0	46.46
620.0	34.66
621.0	38.46
622.0	34.22
623.0	32.71
624.0	33.74
625.0	33.34
626.0	33.17
627.0	32.35
628.0	32.00
629.0	31.99
630.0	31.69
631.0	26.04
632.0	28.11
633.0	31.56
634.0	28.02
635.0	31.10
636.0	25.41
637.0	23.14
638.0	28.57
639.0	21.82
640.0	21.70
641.0	20.47
642.0	26.06
643.0	20.75
644.0	20.97
645.0	20.48
646.0	19.53
647.0	14.53
648.0	14.95
649.0	21.24
650.0	19.41
651.0	21.96
652.0	18.18
653.0	11.15
654.0	15.10
655.0	14.84
656.0	15.25
657.0	16.11
658.0	13.97
659.0	17.08
660.0	19.66
661.0	16.88
662.0	18.80
663.0	14.05
664.0	14.83
665.0	13.89
666.0	14.53
667.0	13.96
668.0	11.92
669.0	18.69
670.0	11.18
671.0	8.785
672.0	14.59
673.0	12.72
674.0	11.29
675.0	10.01
676.0	12.28
677.0	8.325
678.0	11.47
679.0	10.75
680.0	7.835
681.0	7.569
682.0	10.58
683.0	11.66
684.0	10.58
685.0	10.51
686.0	12.35
687.0	11.93
688.0	10.52
689.0	10.88
690.0	9.114
691.0	10.54
692.0	4.724
693.0	7.166
694.0	11.07
695.0	10.09
696.0	12.04
697.0	13.24
698.0	12.94
699.0	11.90
700.0	13.53
701.0	9.931
702.0	8.001
703.0	7.197
704.0	6.806
705.0	8.259
706.0	8.037
707.0	10.85
708.0	10.18
709.0	9.790
710.0	8.178
711.0	8.197
712.0	8.638
713.0	7.505
714.0	7.195
715.0	10.84
716.0	6.412
717.0	10.41
718.0	6.424
719.0	6.698
720.0	7.790
721.0	7.615
722.0	9.317
723.0	5.669
724.0	10.33
725.0	10.30
726.0	9.894
727.0	6.112
728.0	7.090
729.0	9.949
730.0	4.258
731.0	7.610
732.0	6.476
733.0	5.790
734.0	5.765
735.0	7.028
736.0	10.00
737.0	8.320
738.0	7.752
739.0	8.878
740.0	6.992
741.0	8.963
742.0	6.468
743.0	6.473
744.0	8.117
745.0	6.491
746.0	5.243
747.0	5.033
748.0	5.831
749.0	6.493
750.0	6.638
751.0	8.465
752.0	5.436
753.0	7.130
754.0	4.796
755.0	5.864
756.0	4.591
757.0	10.16
758.0	8.614
759.0	6.869
760.0	7.021
761.0	7.557
762.0	7.163
763.0	7.444
764.0	6.233
765.0	6.525
766.0	8.705
767.0	5.798
768.0	9.465
769.0	5.566
770.0	6.809
771.0	6.055
772.0	5.080
773.0	6.405
774.0	5.940
775.0	7.784
776.0	8.510
777.0	7.998
778.0	5.899
779.0	6.330
780.0	5.537

Sample:	'wa-19(EM)
File name:	20.FDS
Run Date:	'16:49:04, 07/11/2024
Operator:	WXH
Comment:	'

Instrument
Model:	F-4600 FL Spectrophotometer
Serial Number:	3080-002
ROM Version:	5J24000 02

Instrument Parameters
Measurement type:	Wavelength scan
Scan mode:	Emission
Data mode:	Fluorescence
EX WL:	460.0 nm
EM  Start WL:	480.0 nm
EM  End WL:	780.0 nm
Scan speed:	1200 nm/min
Delay:	0.0 s
EX Slit:	2.5 nm
EM Slit:	2.5 nm
PMT Voltage:	600 V
Response:	Auto 
Corrected spectra:	Off
Shutter control:	On

Peak integration
Integration method:	Rectangular
Sensitivity:	1
Threshold:	1.000

Peaks
No.	Valley(nm)	Valley(Data)
1	486.6	18.26
2	489.0	26.45
3	509.2	169.3
4	513.2	185.1
5	518.8	202.3
6	525.2	189.6
7	529.8	186.4
8	532.0	185.8
9	537.6	167.5
10	541.6	166.2
11	544.0	166.9
12	546.0	163.1
13	548.4	168.2
14	551.0	156.0
15	554.6	154.0
16	564.0	132.7
17	567.4	119.4
18	572.4	102.5
19	574.8	102.4
20	578.4	85.10
21	581.4	85.24
22	592.4	62.28
23	594.0	63.89
24	599.8	60.08
25	604.2	45.03
26	611.0	40.18
27	615.6	38.18
28	617.6	33.46
29	622.0	35.51
30	624.6	32.78
31	626.0	29.23
32	628.0	27.21
33	632.2	22.56
34	637.0	18.60
35	639.4	19.96
36	642.2	21.59
37	646.0	16.99
38	648.4	15.24
39	656.6	13.96
40	660.8	12.18
41	662.8	13.09
42	667.2	9.511
43	670.2	9.767
44	673.8	9.672
45	677.0	10.28
46	680.6	6.604
47	683.2	7.685
48	686.2	5.094
49	688.6	5.798
50	693.2	5.482
51	695.4	6.158
52	699.6	7.064
53	701.2	6.881
54	703.4	6.124
55	705.0	5.422
56	707.6	4.721
57	709.6	5.444
58	715.0	4.845
59	720.4	5.633
60	724.2	4.962
61	728.4	5.581
62	731.8	5.216
63	735.0	5.574
64	739.0	6.485
65	744.0	5.288
66	747.6	3.229
67	751.0	6.821
68	753.0	3.582
69	755.2	5.928
70	757.2	6.109
71	760.8	4.262
72	762.6	3.610
73	766.0	5.942
74	769.0	5.509
75	772.0	4.555
76	773.6	5.151
77	780.0	7.818

Data Points
nm	Data
480.0	17.46
481.0	12.68
482.0	16.30
483.0	16.44
484.0	18.18
485.0	17.26
486.0	22.34
487.0	18.68
488.0	27.90
489.0	26.45
490.0	30.07
491.0	30.94
492.0	43.50
493.0	48.36
494.0	54.22
495.0	65.52
496.0	74.07
497.0	85.28
498.0	83.12
499.0	103.6
500.0	114.1
501.0	110.9
502.0	121.7
503.0	131.4
504.0	136.9
505.0	151.4
506.0	159.8
507.0	160.3
508.0	172.6
509.0	174.1
510.0	188.4
511.0	183.3
512.0	189.9
513.0	193.6
514.0	185.7
515.0	198.5
516.0	206.7
517.0	209.5
518.0	211.7
519.0	208.4
520.0	219.7
521.0	207.5
522.0	205.2
523.0	208.0
524.0	210.5
525.0	191.3
526.0	198.6
527.0	204.2
528.0	204.3
529.0	189.0
530.0	190.0
531.0	205.5
532.0	185.8
533.0	208.2
534.0	196.5
535.0	196.4
536.0	176.0
537.0	181.8
538.0	184.6
539.0	181.6
540.0	187.1
541.0	173.7
542.0	173.9
543.0	179.0
544.0	166.9
545.0	180.6
546.0	163.1
547.0	177.4
548.0	171.9
549.0	172.2
550.0	170.1
551.0	156.0
552.0	168.8
553.0	177.0
554.0	161.9
555.0	157.8
556.0	167.9
557.0	152.5
558.0	157.4
559.0	154.4
560.0	141.7
561.0	140.4
562.0	141.5
563.0	135.9
564.0	132.7
565.0	136.0
566.0	130.5
567.0	125.3
568.0	125.5
569.0	126.3
570.0	124.3
571.0	118.1
572.0	107.6
573.0	105.1
574.0	109.7
575.0	105.3
576.0	108.0
577.0	104.2
578.0	94.17
579.0	90.98
580.0	92.18
581.0	92.88
582.0	95.27
583.0	94.80
584.0	90.46
585.0	87.23
586.0	88.58
587.0	82.05
588.0	74.17
589.0	75.44
590.0	74.94
591.0	75.86
592.0	65.54
593.0	68.95
594.0	63.89
595.0	71.91
596.0	75.89
597.0	73.70
598.0	66.74
599.0	64.89
600.0	64.80
601.0	69.95
602.0	63.34
603.0	56.90
604.0	46.60
605.0	47.35
606.0	52.44
607.0	53.82
608.0	55.28
609.0	52.56
610.0	50.26
611.0	40.18
612.0	50.50
613.0	51.85
614.0	44.13
615.0	42.35
616.0	48.94
617.0	35.16
618.0	35.87
619.0	37.71
620.0	42.27
621.0	40.98
622.0	35.51
623.0	39.06
624.0	34.32
625.0	35.12
626.0	29.23
627.0	37.62
628.0	27.21
629.0	38.69
630.0	34.52
631.0	36.07
632.0	22.85
633.0	26.61
634.0	26.74
635.0	29.79
636.0	23.92
637.0	18.60
638.0	26.77
639.0	22.84
640.0	24.10
641.0	22.92
642.0	23.76
643.0	26.83
644.0	23.96
645.0	19.50
646.0	16.99
647.0	19.81
648.0	17.48
649.0	18.03
650.0	23.71
651.0	21.37
652.0	21.43
653.0	17.37
654.0	21.79
655.0	18.65
656.0	17.49
657.0	14.85
658.0	17.90
659.0	12.35
660.0	15.58
661.0	12.88
662.0	16.83
663.0	17.05
664.0	15.29
665.0	14.86
666.0	13.00
667.0	10.12
668.0	14.69
669.0	16.49
670.0	10.15
671.0	12.49
672.0	13.90
673.0	14.74
674.0	12.40
675.0	10.97
676.0	9.568
677.0	10.28
678.0	12.18
679.0	12.25
680.0	10.64
681.0	9.515
682.0	6.600
683.0	7.926
684.0	8.212
685.0	9.947
686.0	5.910
687.0	11.01
688.0	8.082
689.0	7.606
690.0	10.21
691.0	8.564
692.0	8.265
693.0	7.077
694.0	7.621
695.0	9.298
696.0	7.444
697.0	10.19
698.0	9.531
699.0	8.011
700.0	9.007
701.0	9.489
702.0	8.371
703.0	7.848
704.0	11.79
705.0	5.422
706.0	8.583
707.0	5.777
708.0	8.727
709.0	10.08
710.0	6.807
711.0	8.149
712.0	9.003
713.0	7.145
714.0	5.164
715.0	4.845
716.0	7.369
717.0	12.83
718.0	9.958
719.0	8.293
720.0	6.810
721.0	6.660
722.0	8.970
723.0	9.369
724.0	6.313
725.0	7.446
726.0	6.989
727.0	6.958
728.0	9.544
729.0	7.450
730.0	11.57
731.0	8.426
732.0	6.408
733.0	7.847
734.0	8.403
735.0	5.574
736.0	9.740
737.0	9.493
738.0	8.147
739.0	6.485
740.0	7.812
741.0	8.554
742.0	10.77
743.0	6.227
744.0	5.288
745.0	6.188
746.0	4.781
747.0	3.996
748.0	6.303
749.0	8.932
750.0	7.283
751.0	6.821
752.0	10.98
753.0	3.582
754.0	7.495
755.0	7.825
756.0	7.294
757.0	7.604
758.0	10.04
759.0	5.614
760.0	6.047
761.0	6.114
762.0	5.742
763.0	4.979
764.0	5.324
765.0	10.23
766.0	5.942
767.0	10.54
768.0	8.306
769.0	5.509
770.0	8.469
771.0	9.616
772.0	4.555
773.0	6.021
774.0	7.624
775.0	8.079
776.0	9.701
777.0	9.920
778.0	4.636
779.0	5.330
780.0	7.818

Sample:	'wa-20(EM)
File name:	20.FDS
Run Date:	'16:49:35, 07/11/2024
Operator:	WXH
Comment:	'

Instrument
Model:	F-4600 FL Spectrophotometer
Serial Number:	3080-002
ROM Version:	5J24000 02

Instrument Parameters
Measurement type:	Wavelength scan
Scan mode:	Emission
Data mode:	Fluorescence
EX WL:	460.0 nm
EM  Start WL:	480.0 nm
EM  End WL:	780.0 nm
Scan speed:	1200 nm/min
Delay:	0.0 s
EX Slit:	2.5 nm
EM Slit:	2.5 nm
PMT Voltage:	600 V
Response:	Auto 
Corrected spectra:	Off
Shutter control:	On

Peak integration
Integration method:	Rectangular
Sensitivity:	1
Threshold:	1.000

Peaks
No.	Valley(nm)	Valley(Data)
1	486.8	22.26
2	510.2	163.5
3	513.6	194.9
4	516.0	194.8
5	519.0	201.6
6	522.4	200.6
7	526.2	195.8
8	530.8	182.7
9	532.8	182.0
10	535.4	177.4
11	538.2	171.6
12	541.8	175.6
13	544.6	167.8
14	547.8	162.9
15	549.2	160.1
16	551.0	161.3
17	553.8	142.5
18	556.2	142.9
19	560.6	145.5
20	566.4	118.9
21	572.6	103.7
22	576.0	92.40
23	578.8	82.95
24	582.0	90.62
25	586.0	77.04
26	588.4	80.04
27	591.0	71.38
28	593.0	65.74
29	597.6	64.43
30	601.2	55.07
31	603.4	52.42
32	605.0	53.45
33	612.4	45.57
34	616.0	35.97
35	621.0	31.66
36	623.4	31.01
37	625.6	33.65
38	627.2	28.31
39	629.0	30.99
40	630.8	27.54
41	632.6	27.75
42	637.4	19.19
43	639.6	19.20
44	643.2	17.65
45	645.2	19.26
46	647.6	15.24
47	655.4	13.77
48	658.2	12.87
49	659.8	14.06
50	662.0	12.50
51	668.2	9.458
52	671.8	10.60
53	677.8	7.343
54	682.8	6.777
55	684.4	6.741
56	689.8	9.325
57	695.0	7.196
58	698.6	4.804
59	703.8	8.791
60	707.4	5.199
61	713.8	4.383
62	717.4	3.885
63	720.2	6.305
64	722.0	5.286
65	725.0	4.833
66	727.0	6.018
67	731.2	2.919
68	733.2	6.314
69	737.0	4.344
70	739.4	4.744
71	742.8	3.167
72	747.6	6.039
73	752.0	3.668
74	755.2	3.410
75	761.0	2.802
76	769.4	6.157
77	771.8	4.633
78	775.2	5.958
79	777.8	5.116
80	780.0	6.531

Data Points
nm	Data
480.0	17.35
481.0	15.01
482.0	14.00
483.0	16.08
484.0	15.52
485.0	23.94
486.0	24.91
487.0	24.91
488.0	23.69
489.0	30.19
490.0	37.84
491.0	39.78
492.0	43.38
493.0	51.04
494.0	57.73
495.0	60.41
496.0	64.09
497.0	74.82
498.0	86.33
499.0	96.31
500.0	99.01
501.0	101.9
502.0	124.9
503.0	131.6
504.0	139.0
505.0	158.0
506.0	148.4
507.0	154.3
508.0	174.6
509.0	187.2
510.0	178.6
511.0	193.8
512.0	188.7
513.0	216.1
514.0	207.2
515.0	211.6
516.0	194.8
517.0	210.9
518.0	216.4
519.0	201.6
520.0	208.5
521.0	200.4
522.0	217.1
523.0	201.0
524.0	232.4
525.0	219.1
526.0	202.6
527.0	217.7
528.0	213.3
529.0	200.4
530.0	196.9
531.0	191.5
532.0	199.0
533.0	200.2
534.0	193.0
535.0	184.5
536.0	183.3
537.0	185.3
538.0	172.5
539.0	191.6
540.0	184.8
541.0	177.9
542.0	177.9
543.0	175.8
544.0	173.7
545.0	175.1
546.0	182.4
547.0	181.1
548.0	169.3
549.0	164.3
550.0	178.3
551.0	161.3
552.0	162.0
553.0	156.0
554.0	153.4
555.0	159.8
556.0	149.8
557.0	159.2
558.0	156.0
559.0	154.6
560.0	152.6
561.0	147.9
562.0	150.5
563.0	132.9
564.0	141.0
565.0	130.2
566.0	132.0
567.0	128.8
568.0	128.3
569.0	124.3
570.0	132.3
571.0	117.5
572.0	109.0
573.0	105.7
574.0	110.0
575.0	112.3
576.0	92.40
577.0	108.9
578.0	96.71
579.0	84.38
580.0	95.19
581.0	99.82
582.0	90.62
583.0	95.86
584.0	90.67
585.0	87.60
586.0	77.04
587.0	97.24
588.0	83.79
589.0	85.55
590.0	76.41
591.0	71.38
592.0	74.94
593.0	65.74
594.0	70.46
595.0	65.02
596.0	71.61
597.0	72.70
598.0	66.77
599.0	70.14
600.0	60.03
601.0	59.21
602.0	62.51
603.0	57.07
604.0	61.94
605.0	53.45
606.0	67.65
607.0	54.79
608.0	53.73
609.0	51.80
610.0	48.37
611.0	49.00
612.0	46.86
613.0	51.26
614.0	47.37
615.0	46.88
616.0	35.97
617.0	45.29
618.0	42.15
619.0	43.52
620.0	41.71
621.0	31.66
622.0	36.94
623.0	31.33
624.0	41.77
625.0	35.69
626.0	38.77
627.0	30.04
628.0	33.55
629.0	30.99
630.0	35.41
631.0	27.89
632.0	32.31
633.0	35.02
634.0	32.46
635.0	24.06
636.0	24.33
637.0	20.59
638.0	22.45
639.0	23.96
640.0	21.69
641.0	24.07
642.0	23.06
643.0	20.97
644.0	20.59
645.0	21.21
646.0	24.77
647.0	17.68
648.0	19.49
649.0	19.99
650.0	24.79
651.0	18.15
652.0	17.93
653.0	17.30
654.0	18.22
655.0	15.10
656.0	16.22
657.0	17.18
658.0	14.97
659.0	18.56
660.0	16.04
661.0	19.06
662.0	12.50
663.0	16.39
664.0	12.94
665.0	13.46
666.0	14.23
667.0	13.31
668.0	9.605
669.0	12.50
670.0	15.99
671.0	13.40
672.0	11.64
673.0	12.45
674.0	11.01
675.0	12.61
676.0	9.772
677.0	9.678
678.0	10.14
679.0	14.10
680.0	13.10
681.0	11.42
682.0	10.63
683.0	7.011
684.0	8.803
685.0	10.49
686.0	8.298
687.0	10.53
688.0	13.85
689.0	11.40
690.0	10.47
691.0	9.736
692.0	10.31
693.0	10.18
694.0	8.692
695.0	7.196
696.0	13.82
697.0	7.413
698.0	7.467
699.0	7.201
700.0	8.558
701.0	9.246
702.0	10.95
703.0	9.190
704.0	9.225
705.0	11.41
706.0	6.705
707.0	5.896
708.0	6.360
709.0	7.134
710.0	8.551
711.0	7.362
712.0	9.123
713.0	8.056
714.0	4.974
715.0	8.822
716.0	7.901
717.0	5.944
718.0	7.843
719.0	10.53
720.0	6.480
721.0	6.942
722.0	5.286
723.0	8.894
724.0	7.049
725.0	4.833
726.0	10.79
727.0	6.018
728.0	7.919
729.0	14.26
730.0	8.308
731.0	3.633
732.0	7.354
733.0	7.335
734.0	6.640
735.0	6.626
736.0	8.367
737.0	4.344
738.0	7.813
739.0	5.894
740.0	8.464
741.0	7.264
742.0	5.469
743.0	3.604
744.0	7.187
745.0	7.981
746.0	10.06
747.0	10.89
748.0	6.820
749.0	8.438
750.0	8.925
751.0	8.529
752.0	3.668
753.0	9.306
754.0	5.868
755.0	3.807
756.0	4.759
757.0	7.197
758.0	10.81
759.0	7.509
760.0	9.880
761.0	2.802
762.0	8.258
763.0	5.667
764.0	7.666
765.0	8.560
766.0	7.501
767.0	10.76
768.0	7.364
769.0	6.876
770.0	7.664
771.0	7.440
772.0	9.621
773.0	10.20
774.0	8.305
775.0	7.338
776.0	11.11
777.0	5.388
778.0	10.77
779.0	9.469
780.0	6.531

