Sample:	'wa-1(EM)
File name:	30.FDS
Run Date:	'16:18:50, 07/11/2024
Operator:	WXH
Comment:	'

Instrument
Model:	F-4600 FL Spectrophotometer
Serial Number:	3080-002
ROM Version:	5J24000 02

Instrument Parameters
Measurement type:	Wavelength scan
Scan mode:	Emission
Data mode:	Fluorescence
EX WL:	460.0 nm
EM  Start WL:	480.0 nm
EM  End WL:	780.0 nm
Scan speed:	1200 nm/min
Delay:	0.0 s
EX Slit:	2.5 nm
EM Slit:	2.5 nm
PMT Voltage:	600 V
Response:	Auto 
Corrected spectra:	Off
Shutter control:	On

Peak integration
Integration method:	Rectangular
Sensitivity:	1
Threshold:	1.000

Peaks
No.	Valley(nm)	Valley(Data)
1	483.6	36.43
2	488.4	45.20
3	491.4	61.55
4	505.8	199.6
5	511.4	243.8
6	516.4	270.1
7	518.4	261.8
8	521.2	272.2
9	524.8	251.1
10	528.2	252.0
11	533.2	256.9
12	538.4	228.6
13	542.8	220.0
14	546.4	206.6
15	549.2	211.4
16	551.2	210.6
17	554.8	199.6
18	557.6	194.4
19	559.4	184.5
20	562.8	169.4
21	564.6	174.1
22	570.8	149.5
23	576.8	131.2
24	582.0	114.1
25	583.8	107.9
26	589.8	95.58
27	592.2	86.70
28	596.6	77.80
29	598.4	73.65
30	601.0	70.19
31	605.2	66.22
32	610.2	51.08
33	615.6	47.90
34	618.4	44.63
35	624.2	37.30
36	625.8	39.32
37	629.6	29.95
38	639.6	22.14
39	642.6	22.35
40	645.6	20.12
41	648.0	18.96
42	651.2	18.54
43	654.0	18.01
44	657.8	11.67
45	661.2	12.29
46	665.0	14.34
47	666.6	12.64
48	670.4	10.09
49	672.2	8.399
50	677.0	8.989
51	678.6	8.744
52	682.4	9.490
53	685.4	7.608
54	688.8	9.519
55	690.0	9.005
56	693.6	6.316
57	695.2	5.701
58	701.2	4.131
59	706.0	4.338
60	708.2	4.152
61	709.8	5.064
62	712.4	3.601
63	718.8	4.731
64	724.4	3.861
65	731.0	3.853
66	734.2	3.945
67	737.6	4.640
68	740.8	7.562
69	743.0	4.085
70	747.0	2.783
71	752.6	2.909
72	760.0	5.907
73	764.6	5.705
74	765.8	5.837
75	770.4	4.256
76	773.8	5.242
77	777.6	4.446

Data Points
nm	Data
480.0	35.54
481.0	35.04
482.0	37.32
483.0	40.79
484.0	37.99
485.0	40.24
486.0	45.00
487.0	46.53
488.0	48.73
489.0	51.60
490.0	66.47
491.0	71.41
492.0	64.17
493.0	75.28
494.0	86.59
495.0	99.32
496.0	107.2
497.0	114.2
498.0	126.8
499.0	129.7
500.0	135.0
501.0	141.8
502.0	164.2
503.0	181.0
504.0	194.9
505.0	200.9
506.0	200.9
507.0	216.4
508.0	228.3
509.0	249.7
510.0	250.4
511.0	258.2
512.0	250.0
513.0	261.8
514.0	294.2
515.0	290.0
516.0	276.0
517.0	294.9
518.0	287.6
519.0	279.4
520.0	277.8
521.0	274.5
522.0	286.3
523.0	274.7
524.0	284.1
525.0	265.2
526.0	277.5
527.0	266.4
528.0	258.0
529.0	261.9
530.0	262.6
531.0	262.2
532.0	259.2
533.0	257.4
534.0	263.1
535.0	258.6
536.0	249.8
537.0	241.8
538.0	252.6
539.0	238.7
540.0	242.7
541.0	230.8
542.0	239.1
543.0	220.4
544.0	227.5
545.0	222.6
546.0	225.1
547.0	220.7
548.0	220.5
549.0	222.2
550.0	224.9
551.0	213.7
552.0	220.2
553.0	214.1
554.0	217.6
555.0	212.7
556.0	209.5
557.0	198.8
558.0	205.5
559.0	192.7
560.0	209.7
561.0	200.2
562.0	185.1
563.0	174.3
564.0	184.6
565.0	176.7
566.0	175.1
567.0	167.8
568.0	163.3
569.0	163.7
570.0	155.0
571.0	158.3
572.0	166.6
573.0	154.0
574.0	156.6
575.0	146.0
576.0	134.2
577.0	136.9
578.0	128.4
579.0	129.5
580.0	119.6
581.0	118.2
582.0	114.1
583.0	115.8
584.0	112.4
585.0	110.2
586.0	112.2
587.0	109.6
588.0	110.2
589.0	103.2
590.0	99.42
591.0	106.5
592.0	88.67
593.0	99.97
594.0	91.94
595.0	92.31
596.0	88.22
597.0	85.61
598.0	79.28
599.0	78.76
600.0	77.44
601.0	70.19
602.0	72.88
603.0	73.86
604.0	80.83
605.0	68.24
606.0	71.18
607.0	72.33
608.0	59.76
609.0	67.07
610.0	58.38
611.0	58.95
612.0	56.74
613.0	59.30
614.0	58.39
615.0	52.69
616.0	54.36
617.0	55.11
618.0	48.77
619.0	47.75
620.0	49.87
621.0	50.15
622.0	46.05
623.0	48.97
624.0	38.54
625.0	44.06
626.0	39.94
627.0	44.94
628.0	37.55
629.0	38.55
630.0	35.16
631.0	33.99
632.0	36.36
633.0	35.83
634.0	33.30
635.0	30.72
636.0	29.29
637.0	30.75
638.0	33.33
639.0	27.86
640.0	28.11
641.0	27.15
642.0	25.51
643.0	28.94
644.0	27.24
645.0	21.86
646.0	20.98
647.0	22.93
648.0	18.96
649.0	25.86
650.0	22.80
651.0	19.72
652.0	19.10
653.0	21.77
654.0	18.01
655.0	19.12
656.0	15.02
657.0	16.12
658.0	12.50
659.0	18.10
660.0	16.89
661.0	12.52
662.0	15.22
663.0	16.62
664.0	16.52
665.0	14.34
666.0	16.41
667.0	18.90
668.0	18.61
669.0	13.54
670.0	11.32
671.0	10.54
672.0	9.720
673.0	13.83
674.0	18.38
675.0	12.96
676.0	13.56
677.0	8.989
678.0	12.55
679.0	10.73
680.0	10.99
681.0	10.56
682.0	10.52
683.0	11.95
684.0	9.352
685.0	8.897
686.0	8.494
687.0	11.94
688.0	10.07
689.0	11.46
690.0	9.005
691.0	11.27
692.0	9.082
693.0	7.140
694.0	9.906
695.0	8.486
696.0	6.480
697.0	7.312
698.0	9.337
699.0	8.969
700.0	8.743
701.0	5.536
702.0	7.823
703.0	10.93
704.0	9.516
705.0	6.070
706.0	4.338
707.0	7.238
708.0	5.197
709.0	6.144
710.0	6.415
711.0	8.793
712.0	4.773
713.0	5.343
714.0	7.134
715.0	6.862
716.0	6.298
717.0	5.707
718.0	5.641
719.0	6.344
720.0	6.752
721.0	7.062
722.0	9.496
723.0	5.371
724.0	4.539
725.0	5.412
726.0	5.985
727.0	6.817
728.0	7.772
729.0	7.529
730.0	5.566
731.0	3.853
732.0	6.114
733.0	4.062
734.0	4.905
735.0	4.502
736.0	8.320
737.0	6.225
738.0	7.522
739.0	5.991
740.0	7.999
741.0	7.772
742.0	9.579
743.0	4.085
744.0	6.966
745.0	5.633
746.0	5.579
747.0	2.783
748.0	4.210
749.0	5.958
750.0	7.261
751.0	5.958
752.0	7.289
753.0	4.566
754.0	6.194
755.0	8.399
756.0	5.348
757.0	8.079
758.0	7.056
759.0	6.549
760.0	5.907
761.0	8.373
762.0	6.526
763.0	8.982
764.0	6.087
765.0	9.696
766.0	6.310
767.0	6.204
768.0	6.824
769.0	7.112
770.0	4.935
771.0	6.242
772.0	8.935
773.0	5.905
774.0	5.504
775.0	9.046
776.0	7.779
777.0	5.078
778.0	7.060
779.0	4.671
780.0	7.351

Sample:	'wa-2(EM)
File name:	30.FDS
Run Date:	'16:19:20, 07/11/2024
Operator:	WXH
Comment:	'

Instrument
Model:	F-4600 FL Spectrophotometer
Serial Number:	3080-002
ROM Version:	5J24000 02

Instrument Parameters
Measurement type:	Wavelength scan
Scan mode:	Emission
Data mode:	Fluorescence
EX WL:	460.0 nm
EM  Start WL:	480.0 nm
EM  End WL:	780.0 nm
Scan speed:	1200 nm/min
Delay:	0.0 s
EX Slit:	2.5 nm
EM Slit:	2.5 nm
PMT Voltage:	600 V
Response:	Auto 
Corrected spectra:	Off
Shutter control:	On

Peak integration
Integration method:	Rectangular
Sensitivity:	1
Threshold:	1.000

Peaks
No.	Valley(nm)	Valley(Data)
1	484.4	34.25
2	486.8	39.56
3	491.4	56.49
4	504.6	189.3
5	507.0	202.2
6	515.6	263.8
7	522.6	267.7
8	526.4	256.2
9	533.2	246.4
10	537.2	243.0
11	540.8	224.0
12	544.2	219.2
13	551.2	207.5
14	553.8	204.3
15	558.2	190.6
16	562.6	183.1
17	566.0	169.3
18	570.0	150.9
19	574.0	136.7
20	578.0	116.2
21	585.6	101.3
22	591.0	83.22
23	597.8	74.94
24	601.2	64.43
25	603.6	63.45
26	609.6	58.19
27	616.4	47.82
28	619.8	43.10
29	622.6	39.14
30	626.0	38.54
31	627.6	36.60
32	630.4	34.22
33	632.0	31.57
34	634.0	27.46
35	636.8	22.98
36	642.4	22.59
37	647.4	19.11
38	653.8	16.84
39	656.0	14.27
40	657.8	16.14
41	659.2	15.73
42	661.0	15.95
43	663.8	13.41
44	668.8	11.15
45	670.6	12.72
46	673.8	10.93
47	678.6	7.069
48	682.2	8.684
49	684.6	8.237
50	687.6	5.891
51	689.8	6.099
52	693.2	6.232
53	697.0	6.947
54	699.2	5.513
55	704.2	5.056
56	708.0	7.200
57	710.8	5.349
58	713.6	3.689
59	719.8	4.994
60	724.4	6.140
61	727.2	4.551
62	733.4	4.632
63	735.0	3.875
64	738.2	4.906
65	741.2	4.921
66	745.2	4.912
67	749.4	4.230
68	752.2	4.177
69	755.4	4.722
70	758.6	3.482
71	761.8	2.540
72	763.4	4.170
73	767.4	4.180
74	770.2	3.287
75	773.0	2.484
76	778.4	3.261

Data Points
nm	Data
480.0	42.13
481.0	36.30
482.0	41.16
483.0	38.58
484.0	34.40
485.0	41.76
486.0	46.57
487.0	40.51
488.0	47.45
489.0	59.23
490.0	59.97
491.0	59.36
492.0	65.59
493.0	68.95
494.0	84.65
495.0	96.53
496.0	104.8
497.0	111.3
498.0	128.1
499.0	134.4
500.0	149.7
501.0	156.6
502.0	167.2
503.0	193.8
504.0	192.1
505.0	202.3
506.0	224.8
507.0	202.2
508.0	226.8
509.0	237.9
510.0	253.8
511.0	257.4
512.0	256.4
513.0	280.1
514.0	278.7
515.0	276.6
516.0	284.3
517.0	286.9
518.0	282.1
519.0	287.8
520.0	285.3
521.0	286.6
522.0	268.7
523.0	275.9
524.0	276.3
525.0	267.2
526.0	269.0
527.0	267.6
528.0	269.5
529.0	264.5
530.0	262.5
531.0	267.3
532.0	255.9
533.0	248.4
534.0	261.3
535.0	251.7
536.0	249.5
537.0	244.3
538.0	253.4
539.0	246.1
540.0	245.3
541.0	225.3
542.0	233.8
543.0	229.8
544.0	228.3
545.0	235.9
546.0	228.2
547.0	232.0
548.0	225.6
549.0	217.9
550.0	212.0
551.0	208.5
552.0	226.9
553.0	208.1
554.0	209.5
555.0	221.0
556.0	217.2
557.0	208.9
558.0	201.2
559.0	213.2
560.0	204.9
561.0	179.7
562.0	196.9
563.0	198.6
564.0	183.3
565.0	178.8
566.0	169.3
567.0	175.0
568.0	171.3
569.0	170.9
570.0	150.9
571.0	160.1
572.0	156.6
573.0	141.6
574.0	136.7
575.0	144.4
576.0	149.2
577.0	141.5
578.0	116.2
579.0	128.9
580.0	133.5
581.0	136.9
582.0	130.3
583.0	121.0
584.0	108.0
585.0	110.1
586.0	103.5
587.0	110.3
588.0	108.6
589.0	102.1
590.0	90.79
591.0	83.22
592.0	88.18
593.0	96.68
594.0	84.70
595.0	83.52
596.0	80.63
597.0	81.17
598.0	74.97
599.0	77.12
600.0	85.11
601.0	71.01
602.0	72.60
603.0	69.03
604.0	69.15
605.0	72.13
606.0	69.34
607.0	76.29
608.0	65.70
609.0	58.67
610.0	66.04
611.0	60.94
612.0	59.36
613.0	59.76
614.0	60.89
615.0	51.96
616.0	56.04
617.0	58.13
618.0	56.24
619.0	58.14
620.0	49.67
621.0	48.29
622.0	47.88
623.0	39.27
624.0	40.01
625.0	43.32
626.0	38.54
627.0	44.40
628.0	40.48
629.0	45.24
630.0	34.27
631.0	36.57
632.0	31.57
633.0	37.22
634.0	27.46
635.0	29.38
636.0	28.19
637.0	30.33
638.0	27.57
639.0	33.70
640.0	28.23
641.0	23.94
642.0	27.73
643.0	29.01
644.0	31.82
645.0	26.95
646.0	21.37
647.0	21.83
648.0	24.60
649.0	23.86
650.0	23.26
651.0	21.96
652.0	18.28
653.0	18.66
654.0	17.30
655.0	17.76
656.0	14.27
657.0	22.17
658.0	17.79
659.0	18.44
660.0	19.11
661.0	15.95
662.0	21.38
663.0	15.86
664.0	14.32
665.0	14.11
666.0	16.43
667.0	12.33
668.0	13.62
669.0	14.37
670.0	17.08
671.0	12.90
672.0	11.97
673.0	11.89
674.0	12.98
675.0	15.93
676.0	12.29
677.0	11.45
678.0	8.532
679.0	14.89
680.0	11.63
681.0	12.49
682.0	9.659
683.0	11.56
684.0	9.411
685.0	8.638
686.0	11.64
687.0	12.53
688.0	8.040
689.0	12.10
690.0	8.280
691.0	12.12
692.0	8.956
693.0	6.830
694.0	9.719
695.0	12.13
696.0	11.12
697.0	6.947
698.0	7.022
699.0	6.882
700.0	7.083
701.0	11.60
702.0	6.943
703.0	7.937
704.0	6.670
705.0	5.128
706.0	8.475
707.0	11.06
708.0	7.200
709.0	9.170
710.0	6.391
711.0	7.011
712.0	7.655
713.0	7.670
714.0	6.490
715.0	7.060
716.0	8.488
717.0	8.635
718.0	7.176
719.0	8.531
720.0	6.423
721.0	8.648
722.0	8.783
723.0	6.881
724.0	8.661
725.0	8.000
726.0	9.030
727.0	5.647
728.0	7.105
729.0	9.003
730.0	6.370
731.0	7.878
732.0	6.361
733.0	4.933
734.0	7.275
735.0	3.875
736.0	7.146
737.0	6.283
738.0	5.936
739.0	7.322
740.0	5.829
741.0	5.036
742.0	7.250
743.0	8.067
744.0	8.478
745.0	6.749
746.0	9.468
747.0	8.522
748.0	6.147
749.0	5.091
750.0	6.012
751.0	6.391
752.0	4.414
753.0	8.321
754.0	11.13
755.0	5.443
756.0	6.142
757.0	7.207
758.0	5.677
759.0	3.887
760.0	5.168
761.0	5.478
762.0	4.326
763.0	5.507
764.0	4.889
765.0	6.439
766.0	9.141
767.0	6.409
768.0	4.923
769.0	5.533
770.0	4.555
771.0	7.425
772.0	6.112
773.0	2.484
774.0	7.131
775.0	8.763
776.0	5.709
777.0	6.573
778.0	4.360
779.0	5.176
780.0	6.145

Sample:	'wa-3(EM)
File name:	30.FDS
Run Date:	'16:19:50, 07/11/2024
Operator:	WXH
Comment:	'

Instrument
Model:	F-4600 FL Spectrophotometer
Serial Number:	3080-002
ROM Version:	5J24000 02

Instrument Parameters
Measurement type:	Wavelength scan
Scan mode:	Emission
Data mode:	Fluorescence
EX WL:	460.0 nm
EM  Start WL:	480.0 nm
EM  End WL:	780.0 nm
Scan speed:	1200 nm/min
Delay:	0.0 s
EX Slit:	2.5 nm
EM Slit:	2.5 nm
PMT Voltage:	600 V
Response:	Auto 
Corrected spectra:	Off
Shutter control:	On

Peak integration
Integration method:	Rectangular
Sensitivity:	1
Threshold:	1.000

Peaks
No.	Valley(nm)	Valley(Data)
1	481.4	31.77
2	485.4	36.80
3	511.2	247.3
4	516.4	262.5
5	518.4	265.3
6	522.8	260.4
7	526.0	266.2
8	528.0	252.8
9	533.8	231.8
10	537.8	238.2
11	539.8	228.7
12	544.8	217.3
13	546.8	212.1
14	550.6	213.3
15	557.4	178.8
16	563.0	175.0
17	567.2	154.9
18	570.8	149.6
19	572.2	139.2
20	579.0	121.8
21	581.6	112.0
22	589.8	88.79
23	595.6	80.27
24	600.8	69.39
25	603.2	65.26
26	609.8	55.32
27	614.4	52.95
28	617.2	45.35
29	621.8	46.78
30	626.0	34.42
31	629.2	33.06
32	632.4	27.80
33	635.6	25.21
34	643.0	22.10
35	647.2	18.61
36	650.2	17.62
37	654.2	13.81
38	657.6	15.31
39	660.2	11.53
40	665.2	9.980
41	669.2	13.19
42	674.6	9.115
43	678.8	6.253
44	685.4	6.725
45	689.6	8.646
46	692.6	7.106
47	697.2	5.759
48	699.2	7.929
49	703.0	5.562
50	705.2	5.961
51	707.8	4.555
52	711.8	3.246
53	717.6	3.994
54	719.8	6.871
55	722.2	5.852
56	723.8	4.914
57	728.2	3.475
58	732.2	2.172
59	737.8	5.263
60	744.6	2.917
61	746.8	5.481
62	750.6	4.045
63	752.8	3.446
64	756.4	4.178
65	759.0	4.775
66	761.0	4.716
67	768.0	4.293
68	770.6	3.776
69	773.0	5.190
70	776.6	2.714

Data Points
nm	Data
480.0	35.35
481.0	37.06
482.0	35.96
483.0	41.86
484.0	43.46
485.0	40.14
486.0	40.03
487.0	45.03
488.0	47.47
489.0	66.92
490.0	61.83
491.0	65.91
492.0	75.29
493.0	69.96
494.0	82.98
495.0	86.91
496.0	94.75
497.0	117.0
498.0	120.8
499.0	132.2
500.0	153.9
501.0	154.1
502.0	164.0
503.0	186.0
504.0	202.3
505.0	210.8
506.0	220.3
507.0	224.7
508.0	229.2
509.0	243.3
510.0	247.6
511.0	247.8
512.0	255.3
513.0	245.5
514.0	298.2
515.0	284.3
516.0	285.2
517.0	280.6
518.0	280.5
519.0	277.9
520.0	274.6
521.0	277.0
522.0	281.7
523.0	268.4
524.0	294.3
525.0	278.6
526.0	266.2
527.0	272.0
528.0	252.8
529.0	270.1
530.0	270.7
531.0	285.4
532.0	244.5
533.0	256.4
534.0	239.0
535.0	253.2
536.0	233.8
537.0	239.7
538.0	249.2
539.0	242.7
540.0	238.8
541.0	237.6
542.0	243.7
543.0	256.4
544.0	228.5
545.0	223.1
546.0	236.6
547.0	217.7
548.0	230.2
549.0	235.0
550.0	225.5
551.0	224.1
552.0	225.2
553.0	220.7
554.0	202.3
555.0	208.5
556.0	212.8
557.0	194.7
558.0	195.5
559.0	196.2
560.0	184.6
561.0	192.7
562.0	185.7
563.0	175.0
564.0	183.0
565.0	173.3
566.0	177.5
567.0	161.4
568.0	183.4
569.0	164.7
570.0	154.9
571.0	154.0
572.0	142.2
573.0	146.1
574.0	151.5
575.0	137.2
576.0	134.9
577.0	135.9
578.0	128.3
579.0	121.8
580.0	138.0
581.0	114.7
582.0	120.1
583.0	119.5
584.0	115.4
585.0	115.3
586.0	115.1
587.0	108.5
588.0	102.9
589.0	88.85
590.0	95.17
591.0	89.48
592.0	106.3
593.0	90.48
594.0	93.97
595.0	92.13
596.0	83.88
597.0	90.30
598.0	89.04
599.0	86.07
600.0	77.77
601.0	75.93
602.0	75.81
603.0	66.47
604.0	67.79
605.0	74.37
606.0	71.87
607.0	62.28
608.0	66.56
609.0	62.23
610.0	60.12
611.0	69.01
612.0	63.03
613.0	54.11
614.0	55.61
615.0	55.98
616.0	58.73
617.0	52.36
618.0	51.61
619.0	55.39
620.0	53.08
621.0	51.60
622.0	51.26
623.0	51.55
624.0	48.04
625.0	40.76
626.0	34.42
627.0	42.15
628.0	42.53
629.0	36.36
630.0	40.07
631.0	34.65
632.0	29.59
633.0	34.40
634.0	36.00
635.0	29.17
636.0	29.75
637.0	29.39
638.0	33.25
639.0	29.32
640.0	26.28
641.0	25.60
642.0	24.87
643.0	22.10
644.0	27.14
645.0	25.97
646.0	20.80
647.0	20.08
648.0	21.61
649.0	22.88
650.0	21.80
651.0	23.03
652.0	20.51
653.0	16.12
654.0	14.91
655.0	19.86
656.0	24.45
657.0	18.10
658.0	20.27
659.0	15.76
660.0	12.65
661.0	18.10
662.0	18.92
663.0	16.72
664.0	14.80
665.0	10.18
666.0	10.72
667.0	15.19
668.0	16.49
669.0	13.78
670.0	15.27
671.0	12.95
672.0	19.15
673.0	13.56
674.0	12.71
675.0	10.94
676.0	12.64
677.0	12.42
678.0	13.45
679.0	7.153
680.0	10.68
681.0	10.20
682.0	12.88
683.0	11.25
684.0	7.828
685.0	9.875
686.0	6.997
687.0	7.483
688.0	10.42
689.0	12.20
690.0	9.123
691.0	9.230
692.0	8.751
693.0	7.425
694.0	11.73
695.0	10.33
696.0	9.170
697.0	6.822
698.0	11.63
699.0	9.346
700.0	10.16
701.0	7.861
702.0	7.029
703.0	5.562
704.0	7.489
705.0	7.022
706.0	8.281
707.0	6.571
708.0	6.291
709.0	8.612
710.0	7.476
711.0	5.653
712.0	4.117
713.0	4.534
714.0	6.260
715.0	6.591
716.0	9.115
717.0	8.741
718.0	7.647
719.0	9.141
720.0	7.123
721.0	8.591
722.0	6.755
723.0	9.351
724.0	5.634
725.0	8.678
726.0	5.108
727.0	4.799
728.0	4.477
729.0	4.592
730.0	7.365
731.0	3.493
732.0	2.354
733.0	4.881
734.0	6.177
735.0	7.489
736.0	8.278
737.0	7.290
738.0	5.915
739.0	5.500
740.0	6.094
741.0	11.45
742.0	7.026
743.0	6.013
744.0	5.256
745.0	4.921
746.0	6.481
747.0	7.011
748.0	8.534
749.0	7.342
750.0	5.570
751.0	5.891
752.0	4.532
753.0	6.083
754.0	7.177
755.0	7.556
756.0	6.269
757.0	4.441
758.0	8.292
759.0	4.775
760.0	7.753
761.0	4.716
762.0	7.079
763.0	8.890
764.0	7.131
765.0	10.01
766.0	7.046
767.0	8.180
768.0	4.293
769.0	6.668
770.0	7.544
771.0	8.787
772.0	6.127
773.0	5.190
774.0	7.971
775.0	6.042
776.0	4.421
777.0	3.869
778.0	4.125
779.0	6.967
780.0	5.264

Sample:	'wa-4(EM)
File name:	30.FDS
Run Date:	'16:20:20, 07/11/2024
Operator:	WXH
Comment:	'

Instrument
Model:	F-4600 FL Spectrophotometer
Serial Number:	3080-002
ROM Version:	5J24000 02

Instrument Parameters
Measurement type:	Wavelength scan
Scan mode:	Emission
Data mode:	Fluorescence
EX WL:	460.0 nm
EM  Start WL:	480.0 nm
EM  End WL:	780.0 nm
Scan speed:	1200 nm/min
Delay:	0.0 s
EX Slit:	2.5 nm
EM Slit:	2.5 nm
PMT Voltage:	600 V
Response:	Auto 
Corrected spectra:	Off
Shutter control:	On

Peak integration
Integration method:	Rectangular
Sensitivity:	1
Threshold:	1.000

Peaks
No.	Valley(nm)	Valley(Data)
1	485.0	38.33
2	490.0	51.50
3	512.2	257.4
4	517.0	272.1
5	522.8	257.7
6	524.6	259.5
7	526.8	261.7
8	528.8	254.4
9	533.4	238.0
10	540.4	231.4
11	543.2	232.8
12	546.8	209.1
13	551.2	215.8
14	553.8	192.7
15	556.0	187.2
16	561.6	171.2
17	564.6	159.7
18	569.2	158.6
19	571.8	145.3
20	578.0	129.3
21	581.2	118.0
22	585.0	100.3
23	586.6	96.22
24	591.6	85.74
25	594.8	86.01
26	596.8	81.06
27	598.8	66.78
28	601.8	68.16
29	604.8	64.51
30	608.0	56.51
31	614.4	50.53
32	616.4	48.36
33	619.2	43.58
34	622.2	43.08
35	624.6	40.17
36	627.2	36.30
37	630.8	29.80
38	633.0	29.06
39	635.2	24.68
40	640.2	23.28
41	644.6	16.17
42	646.6	19.26
43	649.0	17.28
44	652.6	18.38
45	657.4	16.93
46	660.0	11.52
47	664.2	10.83
48	669.2	5.642
49	672.6	9.681
50	675.8	9.229
51	678.8	8.352
52	682.4	8.709
53	685.0	8.336
54	688.0	7.220
55	692.4	6.191
56	694.2	5.101
57	697.6	4.491
58	701.4	6.598
59	703.0	5.875
60	705.6	3.189
61	711.2	8.174
62	716.4	5.754
63	723.2	2.803
64	728.4	4.198
65	730.2	4.536
66	732.0	4.863
67	737.2	2.943
68	739.2	3.211
69	741.8	3.179
70	744.8	4.166
71	748.4	3.654
72	749.6	4.251
73	752.4	2.855
74	756.2	5.290
75	759.0	4.053
76	762.8	4.541
77	766.4	2.018
78	770.0	3.576
79	773.8	5.091
80	776.4	5.300
81	777.8	4.595

Data Points
nm	Data
480.0	34.84
481.0	34.31
482.0	36.63
483.0	38.74
484.0	47.01
485.0	38.33
486.0	41.36
487.0	46.67
488.0	51.71
489.0	54.92
490.0	51.50
491.0	64.41
492.0	72.93
493.0	73.78
494.0	82.44
495.0	98.16
496.0	97.04
497.0	105.8
498.0	129.1
499.0	138.2
500.0	151.8
501.0	164.2
502.0	152.8
503.0	175.6
504.0	197.2
505.0	188.5
506.0	214.0
507.0	212.6
508.0	235.7
509.0	239.3
510.0	246.4
511.0	250.5
512.0	261.7
513.0	268.5
514.0	276.7
515.0	277.0
516.0	286.0
517.0	272.1
518.0	284.3
519.0	283.1
520.0	282.5
521.0	285.3
522.0	285.4
523.0	266.8
524.0	260.2
525.0	264.5
526.0	274.1
527.0	264.1
528.0	276.0
529.0	267.2
530.0	274.9
531.0	265.4
532.0	259.0
533.0	250.8
534.0	250.0
535.0	253.5
536.0	256.7
537.0	278.5
538.0	251.8
539.0	244.1
540.0	237.3
541.0	247.1
542.0	245.6
543.0	234.9
544.0	235.0
545.0	238.3
546.0	231.5
547.0	217.7
548.0	221.1
549.0	222.4
550.0	236.4
551.0	216.0
552.0	227.7
553.0	206.2
554.0	216.3
555.0	205.7
556.0	187.2
557.0	201.6
558.0	202.3
559.0	205.7
560.0	195.8
561.0	184.8
562.0	175.1
563.0	188.5
564.0	166.9
565.0	172.1
566.0	168.5
567.0	183.2
568.0	165.3
569.0	160.6
570.0	166.0
571.0	156.1
572.0	151.1
573.0	152.4
574.0	145.5
575.0	142.4
576.0	138.9
577.0	135.8
578.0	129.3
579.0	138.4
580.0	135.3
581.0	125.7
582.0	128.6
583.0	119.4
584.0	103.3
585.0	100.3
586.0	104.5
587.0	97.36
588.0	104.9
589.0	103.1
590.0	106.8
591.0	92.29
592.0	94.68
593.0	86.30
594.0	90.75
595.0	95.14
596.0	88.24
597.0	87.35
598.0	90.29
599.0	72.56
600.0	76.87
601.0	81.93
602.0	68.46
603.0	72.49
604.0	69.61
605.0	66.10
606.0	73.55
607.0	67.35
608.0	56.51
609.0	66.31
610.0	63.41
611.0	71.50
612.0	57.49
613.0	58.47
614.0	56.44
615.0	52.77
616.0	52.01
617.0	52.81
618.0	51.39
619.0	52.33
620.0	47.09
621.0	53.79
622.0	44.48
623.0	47.55
624.0	49.20
625.0	43.43
626.0	39.92
627.0	40.25
628.0	36.01
629.0	38.87
630.0	36.55
631.0	29.96
632.0	37.53
633.0	29.06
634.0	34.61
635.0	27.39
636.0	29.99
637.0	29.39
638.0	34.91
639.0	25.31
640.0	23.94
641.0	29.05
642.0	23.78
643.0	20.81
644.0	20.81
645.0	20.84
646.0	22.39
647.0	24.55
648.0	25.28
649.0	17.28
650.0	26.42
651.0	18.63
652.0	19.87
653.0	22.03
654.0	17.99
655.0	21.88
656.0	18.09
657.0	19.32
658.0	18.33
659.0	19.30
660.0	11.52
661.0	17.60
662.0	15.11
663.0	17.74
664.0	12.31
665.0	16.86
666.0	16.21
667.0	14.90
668.0	14.63
669.0	6.743
670.0	7.952
671.0	10.65
672.0	13.78
673.0	10.64
674.0	13.72
675.0	11.53
676.0	10.72
677.0	13.40
678.0	10.58
679.0	10.38
680.0	11.44
681.0	11.44
682.0	9.716
683.0	12.12
684.0	10.61
685.0	8.336
686.0	9.463
687.0	8.235
688.0	7.220
689.0	8.868
690.0	11.38
691.0	9.048
692.0	7.830
693.0	9.078
694.0	6.546
695.0	8.780
696.0	6.815
697.0	8.249
698.0	6.795
699.0	7.554
700.0	8.440
701.0	7.844
702.0	7.509
703.0	5.875
704.0	9.932
705.0	6.851
706.0	4.622
707.0	6.676
708.0	6.630
709.0	6.859
710.0	7.633
711.0	10.11
712.0	9.052
713.0	11.26
714.0	6.562
715.0	5.543
716.0	8.475
717.0	9.035
718.0	12.85
719.0	8.256
720.0	7.305
721.0	7.499
722.0	4.990
723.0	3.221
724.0	6.510
725.0	8.063
726.0	7.714
727.0	11.61
728.0	6.478
729.0	6.387
730.0	4.555
731.0	7.227
732.0	4.863
733.0	5.034
734.0	6.233
735.0	5.184
736.0	6.715
737.0	3.604
738.0	8.539
739.0	4.681
740.0	4.869
741.0	10.30
742.0	4.218
743.0	6.486
744.0	8.010
745.0	6.807
746.0	8.705
747.0	8.109
748.0	6.078
749.0	8.450
750.0	5.357
751.0	8.415
752.0	3.772
753.0	8.351
754.0	7.644
755.0	4.114
756.0	5.893
757.0	9.181
758.0	5.623
759.0	4.053
760.0	6.514
761.0	6.789
762.0	6.784
763.0	5.824
764.0	6.525
765.0	5.411
766.0	4.172
767.0	4.362
768.0	7.701
769.0	5.159
770.0	3.576
771.0	7.927
772.0	5.871
773.0	6.501
774.0	5.471
775.0	8.117
776.0	6.676
777.0	6.435
778.0	5.135
779.0	6.926
780.0	9.415

Sample:	'wa-5(EM)
File name:	30.FDS
Run Date:	'16:20:50, 07/11/2024
Operator:	WXH
Comment:	'

Instrument
Model:	F-4600 FL Spectrophotometer
Serial Number:	3080-002
ROM Version:	5J24000 02

Instrument Parameters
Measurement type:	Wavelength scan
Scan mode:	Emission
Data mode:	Fluorescence
EX WL:	460.0 nm
EM  Start WL:	480.0 nm
EM  End WL:	780.0 nm
Scan speed:	1200 nm/min
Delay:	0.0 s
EX Slit:	2.5 nm
EM Slit:	2.5 nm
PMT Voltage:	600 V
Response:	Auto 
Corrected spectra:	Off
Shutter control:	On

Peak integration
Integration method:	Rectangular
Sensitivity:	1
Threshold:	1.000

Peaks
No.	Valley(nm)	Valley(Data)
1	481.6	28.16
2	484.6	36.46
3	489.6	50.23
4	513.4	256.8
5	517.4	280.2
6	521.2	268.1
7	524.8	269.9
8	527.6	262.9
9	531.4	248.7
10	534.2	251.1
11	539.4	227.4
12	542.4	216.7
13	545.6	220.0
14	548.6	223.7
15	553.0	184.6
16	556.2	200.3
17	560.2	178.5
18	562.4	172.3
19	564.2	168.4
20	573.0	139.9
21	576.2	131.0
22	578.2	122.0
23	580.6	113.7
24	583.8	104.5
25	586.2	91.60
26	591.4	87.70
27	595.4	78.90
28	598.6	74.26
29	603.4	62.58
30	605.8	62.49
31	611.2	56.10
32	615.6	46.76
33	618.8	43.44
34	624.4	39.16
35	628.0	32.95
36	632.2	28.67
37	634.6	21.98
38	639.6	21.49
39	645.4	21.33
40	648.2	18.68
41	651.6	16.19
42	656.0	14.67
43	661.4	13.61
44	662.8	13.86
45	666.0	10.71
46	669.4	12.79
47	671.2	12.03
48	676.4	10.05
49	678.8	6.955
50	682.4	7.955
51	684.0	9.723
52	686.4	8.687
53	691.4	6.176
54	694.0	6.839
55	695.6	7.106
56	702.4	5.193
57	707.2	5.015
58	710.4	6.138
59	715.8	4.870
60	718.8	1.884
61	721.2	4.267
62	725.6	3.500
63	728.2	4.608
64	731.4	3.924
65	735.4	4.959
66	737.4	3.641
67	740.0	2.799
68	744.2	3.882
69	746.4	4.609
70	750.8	3.530
71	755.0	1.539
72	758.8	4.115
73	762.6	5.858
74	765.0	4.231
75	766.8	4.432
76	770.0	5.520
77	775.4	3.920
78	777.6	3.845

Data Points
nm	Data
480.0	35.08
481.0	32.96
482.0	30.92
483.0	35.74
484.0	40.81
485.0	40.26
486.0	43.01
487.0	47.24
488.0	52.10
489.0	53.42
490.0	59.78
491.0	71.39
492.0	77.74
493.0	78.17
494.0	77.88
495.0	90.26
496.0	99.00
497.0	111.3
498.0	128.1
499.0	143.4
500.0	143.0
501.0	145.9
502.0	163.7
503.0	184.2
504.0	192.2
505.0	214.8
506.0	220.0
507.0	219.1
508.0	243.8
509.0	249.9
510.0	254.1
511.0	253.7
512.0	281.9
513.0	269.9
514.0	276.5
515.0	299.1
516.0	283.8
517.0	285.0
518.0	291.5
519.0	289.5
520.0	281.9
521.0	281.4
522.0	287.1
523.0	284.2
524.0	283.6
525.0	274.0
526.0	280.0
527.0	275.3
528.0	272.5
529.0	281.7
530.0	275.4
531.0	256.3
532.0	260.2
533.0	262.9
534.0	256.8
535.0	257.9
536.0	250.9
537.0	239.4
538.0	240.3
539.0	238.7
540.0	247.1
541.0	233.0
542.0	225.4
543.0	235.8
544.0	227.4
545.0	221.5
546.0	235.2
547.0	230.3
548.0	234.3
549.0	238.8
550.0	221.9
551.0	217.2
552.0	209.4
553.0	184.6
554.0	201.7
555.0	207.4
556.0	203.9
557.0	208.8
558.0	201.9
559.0	198.0
560.0	183.5
561.0	195.0
562.0	184.3
563.0	188.3
564.0	170.8
565.0	176.2
566.0	178.4
567.0	172.6
568.0	169.6
569.0	165.1
570.0	170.3
571.0	162.2
572.0	149.7
573.0	139.9
574.0	152.0
575.0	145.7
576.0	135.9
577.0	138.8
578.0	125.3
579.0	132.2
580.0	125.6
581.0	115.4
582.0	120.6
583.0	121.8
584.0	109.2
585.0	106.4
586.0	100.9
587.0	104.2
588.0	107.6
589.0	98.14
590.0	111.6
591.0	90.75
592.0	95.05
593.0	93.93
594.0	88.02
595.0	89.23
596.0	83.91
597.0	86.88
598.0	79.33
599.0	83.47
600.0	76.60
601.0	72.26
602.0	75.47
603.0	65.57
604.0	68.50
605.0	71.74
606.0	65.09
607.0	73.30
608.0	63.99
609.0	67.60
610.0	62.90
611.0	58.64
612.0	64.75
613.0	63.22
614.0	49.60
615.0	56.48
616.0	53.81
617.0	61.76
618.0	51.78
619.0	47.26
620.0	45.59
621.0	49.61
622.0	44.93
623.0	47.32
624.0	48.63
625.0	41.64
626.0	41.44
627.0	41.71
628.0	32.95
629.0	41.59
630.0	33.21
631.0	35.70
632.0	29.76
633.0	32.69
634.0	23.67
635.0	28.33
636.0	35.23
637.0	33.12
638.0	33.78
639.0	26.44
640.0	24.90
641.0	27.01
642.0	29.13
643.0	32.06
644.0	26.23
645.0	24.41
646.0	26.73
647.0	26.81
648.0	19.50
649.0	19.41
650.0	24.62
651.0	26.55
652.0	18.86
653.0	25.81
654.0	18.16
655.0	19.12
656.0	14.67
657.0	18.74
658.0	18.33
659.0	19.63
660.0	18.02
661.0	16.08
662.0	16.32
663.0	14.37
664.0	15.49
665.0	14.26
666.0	10.71
667.0	14.52
668.0	16.70
669.0	14.66
670.0	16.64
671.0	12.22
672.0	13.84
673.0	16.80
674.0	12.18
675.0	13.66
676.0	11.99
677.0	11.82
678.0	8.663
679.0	8.968
680.0	15.42
681.0	12.48
682.0	8.860
683.0	13.06
684.0	9.723
685.0	13.83
686.0	10.12
687.0	12.21
688.0	11.08
689.0	9.451
690.0	8.853
691.0	8.926
692.0	8.402
693.0	12.81
694.0	6.839
695.0	9.001
696.0	8.731
697.0	9.860
698.0	9.907
699.0	9.927
700.0	9.678
701.0	7.331
702.0	8.700
703.0	5.815
704.0	7.339
705.0	9.390
706.0	9.908
707.0	7.064
708.0	5.052
709.0	7.250
710.0	6.997
711.0	8.843
712.0	10.51
713.0	10.66
714.0	8.676
715.0	9.316
716.0	7.029
717.0	9.529
718.0	6.461
719.0	3.269
720.0	6.137
721.0	6.446
722.0	7.548
723.0	9.758
724.0	5.582
725.0	4.554
726.0	6.532
727.0	7.828
728.0	5.267
729.0	7.740
730.0	7.918
731.0	5.342
732.0	5.370
733.0	5.877
734.0	6.758
735.0	7.388
736.0	8.103
737.0	6.904
738.0	5.602
739.0	5.647
740.0	2.799
741.0	4.816
742.0	6.574
743.0	5.097
744.0	4.851
745.0	6.897
746.0	5.866
747.0	6.034
748.0	9.099
749.0	9.731
750.0	6.851
751.0	5.918
752.0	7.669
753.0	4.637
754.0	3.517
755.0	1.539
756.0	5.703
757.0	4.764
758.0	6.447
759.0	5.404
760.0	8.952
761.0	8.698
762.0	5.994
763.0	11.72
764.0	5.735
765.0	4.231
766.0	5.892
767.0	4.552
768.0	9.379
769.0	7.569
770.0	5.520
771.0	10.04
772.0	11.54
773.0	6.274
774.0	6.201
775.0	5.112
776.0	4.277
777.0	8.742
778.0	7.681
779.0	5.025
780.0	7.667

Sample:	'wa-6(EM)
File name:	30.FDS
Run Date:	'16:21:21, 07/11/2024
Operator:	WXH
Comment:	'

Instrument
Model:	F-4600 FL Spectrophotometer
Serial Number:	3080-002
ROM Version:	5J24000 02

Instrument Parameters
Measurement type:	Wavelength scan
Scan mode:	Emission
Data mode:	Fluorescence
EX WL:	460.0 nm
EM  Start WL:	480.0 nm
EM  End WL:	780.0 nm
Scan speed:	1200 nm/min
Delay:	0.0 s
EX Slit:	2.5 nm
EM Slit:	2.5 nm
PMT Voltage:	600 V
Response:	Auto 
Corrected spectra:	Off
Shutter control:	On

Peak integration
Integration method:	Rectangular
Sensitivity:	1
Threshold:	1.000

Peaks
No.	Valley(nm)	Valley(Data)
1	481.4	28.35
2	484.0	33.51
3	506.2	205.1
4	514.2	259.2
5	521.6	265.6
6	525.6	265.0
7	529.6	252.5
8	531.6	245.3
9	534.2	236.9
10	536.2	231.3
11	537.4	236.6
12	544.0	216.5
13	548.2	210.5
14	556.0	193.8
15	559.0	190.8
16	560.6	178.9
17	565.8	163.2
18	567.8	160.2
19	574.2	137.6
20	576.8	130.5
21	587.2	94.21
22	595.0	74.71
23	599.0	75.83
24	600.4	72.91
25	604.8	58.39
26	610.2	56.01
27	613.0	51.27
28	618.0	50.55
29	619.6	40.82
30	623.6	39.04
31	627.2	30.86
32	631.0	32.93
33	633.6	28.37
34	636.4	22.57
35	639.2	24.70
36	640.8	26.40
37	646.6	19.93
38	650.0	18.14
39	653.6	15.41
40	656.6	12.77
41	662.0	13.30
42	664.0	14.75
43	665.4	10.57
44	670.4	10.73
45	675.6	9.207
46	677.0	7.997
47	682.6	6.974
48	685.6	6.979
49	687.4	6.908
50	691.8	5.911
51	693.8	8.523
52	698.4	5.376
53	701.6	7.204
54	704.8	5.036
55	708.6	7.186
56	713.6	5.527
57	715.6	4.465
58	719.2	5.519
59	721.4	4.241
60	725.2	4.337
61	727.6	2.670
62	729.8	4.658
63	732.8	5.048
64	738.4	5.807
65	743.0	6.126
66	745.4	4.845
67	749.6	2.129
68	753.0	4.816
69	758.4	3.975
70	761.4	4.368
71	763.6	3.755
72	766.0	5.830
73	768.0	4.067
74	769.6	3.859
75	775.4	3.227

Data Points
nm	Data
480.0	30.24
481.0	38.96
482.0	35.94
483.0	37.73
484.0	33.51
485.0	42.43
486.0	38.32
487.0	43.42
488.0	44.87
489.0	52.25
490.0	64.55
491.0	63.10
492.0	62.83
493.0	82.02
494.0	86.09
495.0	90.24
496.0	96.19
497.0	108.0
498.0	119.1
499.0	132.8
500.0	143.7
501.0	166.1
502.0	172.2
503.0	174.2
504.0	197.5
505.0	212.7
506.0	211.9
507.0	234.3
508.0	235.7
509.0	248.0
510.0	251.7
511.0	254.0
512.0	273.1
513.0	276.2
514.0	273.3
515.0	285.3
516.0	276.6
517.0	282.6
518.0	278.4
519.0	280.1
520.0	269.2
521.0	273.0
522.0	270.8
523.0	271.8
524.0	287.8
525.0	274.2
526.0	275.0
527.0	281.6
528.0	277.8
529.0	262.3
530.0	260.4
531.0	271.1
532.0	254.9
533.0	258.7
534.0	251.2
535.0	255.4
536.0	245.8
537.0	252.9
538.0	240.3
539.0	245.8
540.0	234.7
541.0	235.3
542.0	223.9
543.0	222.7
544.0	216.5
545.0	244.5
546.0	231.3
547.0	229.4
548.0	229.6
549.0	213.8
550.0	239.3
551.0	219.6
552.0	213.0
553.0	219.7
554.0	215.8
555.0	205.7
556.0	193.8
557.0	204.9
558.0	202.2
559.0	190.8
560.0	193.8
561.0	189.5
562.0	186.4
563.0	182.1
564.0	187.9
565.0	175.4
566.0	165.8
567.0	167.8
568.0	166.7
569.0	165.1
570.0	174.7
571.0	158.0
572.0	153.2
573.0	138.8
574.0	139.7
575.0	151.0
576.0	140.4
577.0	137.4
578.0	146.2
579.0	134.8
580.0	129.2
581.0	129.6
582.0	116.6
583.0	116.7
584.0	110.1
585.0	112.2
586.0	104.4
587.0	94.67
588.0	105.1
589.0	97.38
590.0	100.7
591.0	103.9
592.0	94.33
593.0	92.96
594.0	93.09
595.0	74.71
596.0	81.49
597.0	90.62
598.0	82.25
599.0	75.83
600.0	77.55
601.0	83.21
602.0	84.37
603.0	78.05
604.0	68.32
605.0	59.85
606.0	67.64
607.0	70.44
608.0	63.11
609.0	61.82
610.0	64.53
611.0	57.10
612.0	61.37
613.0	51.27
614.0	59.01
615.0	62.30
616.0	55.13
617.0	52.92
618.0	50.55
619.0	48.29
620.0	48.54
621.0	53.90
622.0	43.74
623.0	44.64
624.0	45.48
625.0	44.62
626.0	41.32
627.0	34.89
628.0	37.72
629.0	39.70
630.0	36.75
631.0	32.93
632.0	40.41
633.0	34.95
634.0	33.35
635.0	36.32
636.0	25.98
637.0	29.87
638.0	31.57
639.0	29.53
640.0	28.47
641.0	27.01
642.0	26.85
643.0	31.49
644.0	22.78
645.0	24.06
646.0	21.65
647.0	24.88
648.0	23.10
649.0	22.31
650.0	18.14
651.0	18.78
652.0	17.67
653.0	16.64
654.0	20.29
655.0	23.27
656.0	18.91
657.0	14.08
658.0	16.80
659.0	20.55
660.0	18.82
661.0	17.80
662.0	13.30
663.0	18.84
664.0	14.75
665.0	16.91
666.0	15.14
667.0	14.33
668.0	18.18
669.0	13.66
670.0	12.08
671.0	13.58
672.0	14.36
673.0	15.02
674.0	11.26
675.0	10.94
676.0	12.17
677.0	7.997
678.0	11.26
679.0	12.82
680.0	12.54
681.0	11.87
682.0	7.540
683.0	11.90
684.0	15.88
685.0	12.89
686.0	8.074
687.0	11.08
688.0	8.496
689.0	9.927
690.0	9.521
691.0	14.54
692.0	6.783
693.0	10.49
694.0	9.904
695.0	10.12
696.0	9.337
697.0	12.74
698.0	7.103
699.0	8.867
700.0	9.503
701.0	9.537
702.0	7.223
703.0	6.391
704.0	10.51
705.0	6.573
706.0	8.591
707.0	7.186
708.0	8.429
709.0	7.760
710.0	8.285
711.0	5.835
712.0	6.523
713.0	7.344
714.0	5.638
715.0	5.753
716.0	6.455
717.0	6.302
718.0	8.593
719.0	6.523
720.0	8.080
721.0	6.267
722.0	5.158
723.0	9.991
724.0	9.575
725.0	4.792
726.0	4.919
727.0	3.656
728.0	5.288
729.0	5.708
730.0	6.505
731.0	8.557
732.0	5.835
733.0	7.892
734.0	5.579
735.0	7.130
736.0	6.953
737.0	5.025
738.0	8.471
739.0	6.022
740.0	9.218
741.0	9.176
742.0	8.806
743.0	6.126
744.0	6.241
745.0	5.904
746.0	9.694
747.0	7.683
748.0	6.807
749.0	2.979
750.0	3.918
751.0	6.406
752.0	9.116
753.0	4.816
754.0	6.424
755.0	5.912
756.0	5.377
757.0	6.162
758.0	4.797
759.0	8.156
760.0	5.687
761.0	5.309
762.0	5.921
763.0	5.453
764.0	3.910
765.0	8.598
766.0	5.830
767.0	8.045
768.0	4.067
769.0	6.990
770.0	4.905
771.0	5.660
772.0	5.440
773.0	8.346
774.0	8.815
775.0	4.846
776.0	5.072
777.0	6.920
778.0	9.390
779.0	7.295
780.0	6.592

Sample:	'wa-7(EM)
File name:	30.FDS
Run Date:	'16:21:51, 07/11/2024
Operator:	WXH
Comment:	'

Instrument
Model:	F-4600 FL Spectrophotometer
Serial Number:	3080-002
ROM Version:	5J24000 02

Instrument Parameters
Measurement type:	Wavelength scan
Scan mode:	Emission
Data mode:	Fluorescence
EX WL:	460.0 nm
EM  Start WL:	480.0 nm
EM  End WL:	780.0 nm
Scan speed:	1200 nm/min
Delay:	0.0 s
EX Slit:	2.5 nm
EM Slit:	2.5 nm
PMT Voltage:	600 V
Response:	Auto 
Corrected spectra:	Off
Shutter control:	On

Peak integration
Integration method:	Rectangular
Sensitivity:	1
Threshold:	1.000

Peaks
No.	Valley(nm)	Valley(Data)
1	484.4	31.62
2	486.8	36.83
3	490.8	57.03
4	493.6	71.88
5	515.6	258.8
6	520.6	251.9
7	525.2	263.1
8	527.0	254.5
9	531.2	251.0
10	535.6	237.7
11	538.2	231.3
12	545.2	216.5
13	548.0	213.8
14	550.0	212.4
15	553.0	201.1
16	557.8	200.1
17	559.8	188.4
18	564.2	178.9
19	570.2	138.2
20	576.8	130.7
21	580.0	112.3
22	581.8	106.3
23	584.4	102.9
24	589.0	88.52
25	593.0	84.79
26	597.6	85.15
27	599.2	76.72
28	603.6	66.78
29	610.6	51.01
30	612.6	50.72
31	616.8	48.68
32	621.6	40.78
33	628.0	29.66
34	630.4	32.29
35	632.2	32.89
36	635.0	24.24
37	637.8	25.66
38	645.6	20.86
39	646.8	22.15
40	649.0	18.61
41	651.6	17.58
42	654.0	15.93
43	656.4	15.43
44	658.6	16.96
45	661.2	13.20
46	664.0	11.27
47	666.6	11.98
48	670.0	11.21
49	677.6	6.868
50	681.0	9.029
51	685.6	6.386
52	688.0	6.569
53	694.8	6.739
54	698.4	6.688
55	700.0	7.439
56	704.0	5.982
57	708.4	4.180
58	711.4	6.575
59	713.0	6.126
60	717.4	5.582
61	721.8	4.726
62	725.0	4.253
63	727.2	5.288
64	731.0	5.044
65	735.6	3.543
66	739.0	3.055
67	741.2	3.957
68	745.8	3.455
69	748.6	3.487
70	750.6	3.826
71	753.8	4.490
72	760.0	3.872
73	762.0	4.629
74	765.0	2.980
75	770.4	4.161
76	773.4	4.317
77	777.6	4.596

Data Points
nm	Data
480.0	34.36
481.0	34.26
482.0	33.89
483.0	45.87
484.0	39.05
485.0	32.14
486.0	40.14
487.0	42.32
488.0	40.33
489.0	51.98
490.0	63.23
491.0	59.46
492.0	68.90
493.0	86.94
494.0	75.09
495.0	90.65
496.0	101.1
497.0	113.6
498.0	115.3
499.0	136.5
500.0	148.9
501.0	166.4
502.0	168.6
503.0	178.8
504.0	198.6
505.0	220.5
506.0	207.8
507.0	225.5
508.0	228.5
509.0	237.9
510.0	241.3
511.0	253.3
512.0	261.8
513.0	264.8
514.0	286.8
515.0	291.4
516.0	262.4
517.0	266.3
518.0	289.7
519.0	288.6
520.0	280.9
521.0	275.7
522.0	289.0
523.0	293.0
524.0	260.8
525.0	271.3
526.0	285.9
527.0	254.5
528.0	276.6
529.0	276.6
530.0	257.2
531.0	267.7
532.0	274.1
533.0	270.9
534.0	249.6
535.0	257.1
536.0	257.6
537.0	258.1
538.0	244.5
539.0	248.7
540.0	247.4
541.0	230.1
542.0	239.9
543.0	232.2
544.0	230.1
545.0	225.2
546.0	237.9
547.0	245.4
548.0	213.8
549.0	228.0
550.0	212.4
551.0	232.3
552.0	209.4
553.0	201.1
554.0	216.3
555.0	215.5
556.0	229.6
557.0	200.4
558.0	205.2
559.0	201.5
560.0	192.2
561.0	195.3
562.0	201.0
563.0	187.9
564.0	180.5
565.0	186.4
566.0	186.9
567.0	171.3
568.0	154.4
569.0	158.0
570.0	139.4
571.0	148.9
572.0	155.4
573.0	157.5
574.0	144.6
575.0	137.8
576.0	140.7
577.0	135.6
578.0	141.3
579.0	127.4
580.0	112.3
581.0	127.5
582.0	118.2
583.0	116.4
584.0	109.8
585.0	108.3
586.0	117.4
587.0	110.6
588.0	96.86
589.0	88.52
590.0	101.0
591.0	107.9
592.0	86.67
593.0	84.79
594.0	95.34
595.0	93.10
596.0	92.43
597.0	86.81
598.0	91.84
599.0	79.30
600.0	80.45
601.0	80.97
602.0	78.35
603.0	75.93
604.0	68.94
605.0	78.78
606.0	66.99
607.0	69.44
608.0	65.33
609.0	65.53
610.0	61.75
611.0	59.33
612.0	57.39
613.0	56.38
614.0	62.82
615.0	54.48
616.0	52.18
617.0	49.52
618.0	53.06
619.0	53.02
620.0	43.44
621.0	41.66
622.0	51.00
623.0	41.75
624.0	49.75
625.0	36.43
626.0	35.93
627.0	35.66
628.0	29.66
629.0	33.06
630.0	33.67
631.0	37.36
632.0	34.59
633.0	41.95
634.0	33.10
635.0	24.24
636.0	31.50
637.0	32.90
638.0	33.78
639.0	29.35
640.0	30.74
641.0	30.19
642.0	27.43
643.0	26.62
644.0	27.37
645.0	21.08
646.0	27.81
647.0	22.22
648.0	27.61
649.0	18.61
650.0	23.27
651.0	24.27
652.0	21.11
653.0	18.41
654.0	15.93
655.0	17.88
656.0	18.10
657.0	22.56
658.0	22.06
659.0	20.26
660.0	19.17
661.0	13.72
662.0	21.22
663.0	14.13
664.0	11.27
665.0	18.83
666.0	15.81
667.0	12.46
668.0	18.67
669.0	14.52
670.0	11.21
671.0	13.97
672.0	13.68
673.0	18.60
674.0	13.48
675.0	14.28
676.0	12.31
677.0	8.858
678.0	10.17
679.0	10.12
680.0	13.93
681.0	9.029
682.0	12.57
683.0	10.92
684.0	12.55
685.0	6.978
686.0	9.933
687.0	9.965
688.0	6.569
689.0	7.417
690.0	9.896
691.0	10.74
692.0	10.22
693.0	9.616
694.0	11.81
695.0	9.555
696.0	11.25
697.0	4.986
698.0	8.340
699.0	8.686
700.0	7.439
701.0	9.760
702.0	7.790
703.0	7.420
704.0	5.982
705.0	8.396
706.0	9.982
707.0	5.451
708.0	5.795
709.0	6.279
710.0	8.013
711.0	7.075
712.0	11.12
713.0	6.126
714.0	8.781
715.0	6.134
716.0	7.539
717.0	8.602
718.0	6.441
719.0	8.580
720.0	8.204
721.0	7.406
722.0	7.328
723.0	5.956
724.0	6.153
725.0	4.253
726.0	7.457
727.0	7.128
728.0	7.502
729.0	6.882
730.0	7.476
731.0	5.044
732.0	10.08
733.0	5.721
734.0	7.234
735.0	6.098
736.0	4.787
737.0	5.634
738.0	2.773
739.0	3.055
740.0	6.135
741.0	4.006
742.0	8.710
743.0	9.071
744.0	12.28
745.0	8.014
746.0	5.463
747.0	5.516
748.0	6.009
749.0	3.589
750.0	5.311
751.0	4.923
752.0	7.247
753.0	4.967
754.0	5.525
755.0	8.302
756.0	6.910
757.0	6.803
758.0	6.344
759.0	4.860
760.0	3.872
761.0	5.635
762.0	4.629
763.0	8.412
764.0	5.636
765.0	2.980
766.0	10.53
767.0	7.392
768.0	7.924
769.0	7.864
770.0	5.211
771.0	7.665
772.0	5.045
773.0	6.608
774.0	5.905
775.0	6.126
776.0	6.110
777.0	6.479
778.0	8.264
779.0	9.338
780.0	9.854

Sample:	'wa-8(EM)
File name:	30.FDS
Run Date:	'16:22:21, 07/11/2024
Operator:	WXH
Comment:	'

Instrument
Model:	F-4600 FL Spectrophotometer
Serial Number:	3080-002
ROM Version:	5J24000 02

Instrument Parameters
Measurement type:	Wavelength scan
Scan mode:	Emission
Data mode:	Fluorescence
EX WL:	460.0 nm
EM  Start WL:	480.0 nm
EM  End WL:	780.0 nm
Scan speed:	1200 nm/min
Delay:	0.0 s
EX Slit:	2.5 nm
EM Slit:	2.5 nm
PMT Voltage:	600 V
Response:	Auto 
Corrected spectra:	Off
Shutter control:	On

Peak integration
Integration method:	Rectangular
Sensitivity:	1
Threshold:	1.000

Peaks
No.	Valley(nm)	Valley(Data)
1	483.4	32.44
2	490.2	57.61
3	504.4	184.8
4	514.2	258.2
5	517.8	272.1
6	521.8	268.0
7	523.4	264.3
8	527.4	255.7
9	532.4	252.4
10	535.2	247.2
11	539.0	225.6
12	541.2	221.2
13	545.6	215.7
14	547.8	215.9
15	551.8	210.2
16	554.2	212.8
17	557.8	195.9
18	560.4	183.4
19	566.4	166.8
20	572.0	137.3
21	576.4	127.1
22	579.2	127.2
23	582.0	108.2
24	583.6	106.1
25	591.0	84.00
26	596.8	80.58
27	605.4	58.73
28	608.2	59.60
29	609.8	54.84
30	617.2	45.44
31	622.2	39.82
32	623.6	38.45
33	627.4	33.41
34	631.2	30.42
35	635.4	25.17
36	638.0	18.88
37	642.8	25.46
38	647.8	20.09
39	651.0	14.52
40	656.6	16.29
41	661.0	14.78
42	663.6	14.00
43	670.8	8.137
44	675.6	8.792
45	678.6	8.501
46	682.4	10.17
47	684.4	5.884
48	689.2	5.467
49	693.2	6.466
50	696.4	6.485
51	698.6	5.269
52	702.0	7.369
53	703.4	5.193
54	707.4	6.053
55	711.0	6.012
56	713.2	3.226
57	719.2	4.465
58	722.0	6.173
59	724.0	7.244
60	726.0	5.090
61	728.8	4.945
62	731.4	3.435
63	734.2	2.042
64	735.8	3.814
65	740.2	3.469
66	742.6	5.440
67	745.6	3.699
68	749.4	3.058
69	751.8	3.452
70	756.4	2.939
71	760.6	4.045
72	762.0	4.817
73	764.0	5.052
74	766.4	5.047
75	771.2	4.204
76	774.0	2.305
77	777.6	4.440

Data Points
nm	Data
480.0	26.90
481.0	37.34
482.0	39.34
483.0	35.54
484.0	42.75
485.0	40.21
486.0	38.74
487.0	48.21
488.0	46.55
489.0	57.28
490.0	63.09
491.0	61.24
492.0	64.43
493.0	81.40
494.0	93.59
495.0	96.59
496.0	103.5
497.0	117.9
498.0	125.9
499.0	128.1
500.0	147.6
501.0	167.0
502.0	168.2
503.0	191.6
504.0	187.5
505.0	195.8
506.0	210.5
507.0	223.2
508.0	238.8
509.0	247.6
510.0	257.8
511.0	251.5
512.0	267.4
513.0	273.1
514.0	262.6
515.0	273.0
516.0	277.0
517.0	285.7
518.0	281.2
519.0	280.7
520.0	277.9
521.0	275.0
522.0	271.1
523.0	268.3
524.0	267.7
525.0	298.7
526.0	282.5
527.0	263.8
528.0	267.1
529.0	262.0
530.0	268.1
531.0	275.7
532.0	267.6
533.0	260.7
534.0	270.1
535.0	250.0
536.0	254.1
537.0	253.7
538.0	254.6
539.0	225.6
540.0	240.0
541.0	237.4
542.0	223.5
543.0	231.0
544.0	226.5
545.0	232.4
546.0	221.5
547.0	230.5
548.0	217.9
549.0	235.1
550.0	232.1
551.0	227.0
552.0	211.3
553.0	226.8
554.0	214.7
555.0	218.1
556.0	220.2
557.0	206.4
558.0	201.5
559.0	195.6
560.0	176.4
561.0	184.4
562.0	206.2
563.0	181.1
564.0	181.4
565.0	172.3
566.0	169.3
567.0	171.9
568.0	164.2
569.0	154.5
570.0	157.3
571.0	151.5
572.0	137.3
573.0	142.3
574.0	151.4
575.0	148.1
576.0	136.2
577.0	133.2
578.0	132.1
579.0	138.3
580.0	141.5
581.0	116.6
582.0	108.2
583.0	112.4
584.0	112.8
585.0	121.9
586.0	119.8
587.0	109.2
588.0	107.8
589.0	100.2
590.0	101.4
591.0	84.00
592.0	97.41
593.0	101.3
594.0	93.96
595.0	87.84
596.0	84.15
597.0	86.77
598.0	85.84
599.0	83.42
600.0	78.81
601.0	81.62
602.0	78.25
603.0	73.04
604.0	75.29
605.0	63.88
606.0	66.52
607.0	62.43
608.0	60.12
609.0	65.90
610.0	58.07
611.0	60.89
612.0	60.02
613.0	61.88
614.0	59.46
615.0	50.51
616.0	54.18
617.0	46.34
618.0	49.69
619.0	46.83
620.0	44.06
621.0	42.26
622.0	40.33
623.0	47.29
624.0	44.07
625.0	45.82
626.0	38.98
627.0	40.22
628.0	40.75
629.0	40.16
630.0	41.43
631.0	33.52
632.0	34.72
633.0	33.01
634.0	32.80
635.0	29.66
636.0	31.24
637.0	25.65
638.0	18.88
639.0	26.27
640.0	23.46
641.0	26.49
642.0	25.75
643.0	28.46
644.0	29.43
645.0	30.30
646.0	27.73
647.0	25.26
648.0	20.91
649.0	22.98
650.0	18.48
651.0	14.52
652.0	15.92
653.0	19.17
654.0	18.57
655.0	21.07
656.0	17.49
657.0	18.55
658.0	18.75
659.0	17.66
660.0	19.55
661.0	14.78
662.0	18.77
663.0	20.45
664.0	17.78
665.0	16.51
666.0	18.56
667.0	13.33
668.0	13.12
669.0	13.74
670.0	12.48
671.0	9.119
672.0	12.01
673.0	13.46
674.0	15.11
675.0	11.49
676.0	12.42
677.0	12.15
678.0	11.39
679.0	9.202
680.0	11.65
681.0	11.84
682.0	11.48
683.0	14.52
684.0	9.894
685.0	10.02
686.0	11.18
687.0	9.614
688.0	8.619
689.0	7.706
690.0	6.809
691.0	11.73
692.0	7.886
693.0	8.311
694.0	8.953
695.0	12.64
696.0	8.480
697.0	10.66
698.0	6.555
699.0	7.541
700.0	5.672
701.0	9.198
702.0	7.369
703.0	7.433
704.0	6.641
705.0	6.916
706.0	10.29
707.0	7.331
708.0	7.915
709.0	9.474
710.0	7.348
711.0	6.012
712.0	8.306
713.0	4.763
714.0	6.644
715.0	8.636
716.0	10.07
717.0	5.948
718.0	6.907
719.0	4.924
720.0	5.953
721.0	8.096
722.0	6.173
723.0	9.433
724.0	7.244
725.0	8.312
726.0	5.090
727.0	6.735
728.0	7.566
729.0	4.945
730.0	7.246
731.0	3.997
732.0	7.012
733.0	4.378
734.0	2.430
735.0	5.752
736.0	3.958
737.0	5.372
738.0	6.996
739.0	4.450
740.0	4.880
741.0	5.873
742.0	6.325
743.0	6.484
744.0	7.026
745.0	5.747
746.0	5.220
747.0	5.447
748.0	6.370
749.0	5.549
750.0	5.193
751.0	7.632
752.0	6.263
753.0	6.218
754.0	7.617
755.0	3.606
756.0	3.520
757.0	4.406
758.0	6.076
759.0	8.062
760.0	5.745
761.0	6.001
762.0	4.817
763.0	7.857
764.0	5.052
765.0	7.285
766.0	7.602
767.0	5.820
768.0	6.035
769.0	8.939
770.0	6.859
771.0	4.666
772.0	7.239
773.0	3.797
774.0	2.305
775.0	4.489
776.0	8.541
777.0	6.948
778.0	6.049
779.0	8.060
780.0	6.124

Sample:	'wa-9(EM)
File name:	30.FDS
Run Date:	'16:22:51, 07/11/2024
Operator:	WXH
Comment:	'

Instrument
Model:	F-4600 FL Spectrophotometer
Serial Number:	3080-002
ROM Version:	5J24000 02

Instrument Parameters
Measurement type:	Wavelength scan
Scan mode:	Emission
Data mode:	Fluorescence
EX WL:	460.0 nm
EM  Start WL:	480.0 nm
EM  End WL:	780.0 nm
Scan speed:	1200 nm/min
Delay:	0.0 s
EX Slit:	2.5 nm
EM Slit:	2.5 nm
PMT Voltage:	600 V
Response:	Auto 
Corrected spectra:	Off
Shutter control:	On

Peak integration
Integration method:	Rectangular
Sensitivity:	1
Threshold:	1.000

Peaks
No.	Valley(nm)	Valley(Data)
1	483.4	29.96
2	484.8	34.03
3	496.2	94.60
4	503.4	192.9
5	509.8	224.3
6	514.2	266.4
7	516.4	279.3
8	519.8	263.6
9	521.2	269.8
10	523.4	272.0
11	526.0	265.1
12	530.8	259.8
13	535.2	233.4
14	540.6	224.3
15	543.2	227.9
16	546.0	230.2
17	548.4	215.8
18	552.6	207.5
19	558.4	184.0
20	561.4	184.5
21	568.4	147.0
22	577.0	124.7
23	582.6	106.2
24	585.8	104.7
25	587.6	94.64
26	595.8	78.48
27	597.2	78.10
28	601.0	67.83
29	608.6	58.17
30	612.8	46.93
31	614.8	46.82
32	618.2	43.46
33	621.0	44.57
34	622.8	41.62
35	624.4	37.43
36	628.2	32.52
37	631.0	30.99
38	633.6	29.36
39	635.8	27.82
40	638.4	27.11
41	646.4	19.57
42	647.6	17.09
43	652.2	17.04
44	655.2	17.74
45	658.6	15.30
46	664.8	10.81
47	671.2	10.75
48	674.0	11.00
49	678.0	7.616
50	680.0	9.002
51	682.6	9.887
52	687.2	8.114
53	694.6	6.538
54	700.8	4.798
55	703.8	5.258
56	708.0	4.472
57	709.8	6.732
58	712.8	6.676
59	717.6	4.180
60	720.4	3.664
61	724.2	6.886
62	725.8	4.796
63	729.4	3.381
64	731.4	5.945
65	733.0	5.313
66	737.4	5.706
67	739.4	4.492
68	743.8	5.494
69	747.4	4.913
70	750.6	3.163
71	752.8	4.142
72	756.0	2.106
73	757.4	3.604
74	761.0	3.655
75	763.6	4.916
76	765.4	4.909
77	768.4	5.333
78	769.8	5.689
79	772.4	4.237
80	775.6	4.971
81	780.0	6.881

Data Points
nm	Data
480.0	31.09
481.0	34.83
482.0	35.85
483.0	33.50
484.0	31.08
485.0	39.15
486.0	41.72
487.0	44.65
488.0	54.57
489.0	50.84
490.0	66.23
491.0	66.52
492.0	65.90
493.0	65.89
494.0	75.77
495.0	101.8
496.0	98.44
497.0	120.8
498.0	128.4
499.0	140.4
500.0	142.7
501.0	160.0
502.0	173.0
503.0	202.3
504.0	198.4
505.0	213.8
506.0	215.7
507.0	231.4
508.0	238.6
509.0	253.9
510.0	226.4
511.0	236.5
512.0	255.4
513.0	269.5
514.0	277.3
515.0	274.6
516.0	302.8
517.0	281.8
518.0	289.5
519.0	292.3
520.0	275.1
521.0	279.6
522.0	280.2
523.0	291.7
524.0	288.6
525.0	268.2
526.0	265.1
527.0	272.9
528.0	276.8
529.0	279.0
530.0	280.3
531.0	260.9
532.0	269.3
533.0	258.4
534.0	256.0
535.0	243.1
536.0	250.0
537.0	261.2
538.0	265.5
539.0	248.5
540.0	244.9
541.0	241.5
542.0	247.9
543.0	228.8
544.0	234.9
545.0	231.9
546.0	230.2
547.0	238.5
548.0	235.1
549.0	233.4
550.0	228.0
551.0	223.3
552.0	214.0
553.0	230.4
554.0	222.5
555.0	209.1
556.0	213.0
557.0	203.0
558.0	204.8
559.0	193.6
560.0	205.9
561.0	193.1
562.0	197.0
563.0	192.3
564.0	181.9
565.0	174.5
566.0	182.1
567.0	157.0
568.0	151.1
569.0	154.2
570.0	168.2
571.0	161.3
572.0	168.3
573.0	148.3
574.0	142.8
575.0	146.1
576.0	138.3
577.0	124.7
578.0	139.4
579.0	131.9
580.0	126.3
581.0	124.8
582.0	109.7
583.0	114.6
584.0	120.4
585.0	106.8
586.0	119.1
587.0	102.9
588.0	100.2
589.0	105.3
590.0	91.97
591.0	98.13
592.0	96.17
593.0	89.21
594.0	84.17
595.0	79.12
596.0	81.98
597.0	86.57
598.0	86.60
599.0	82.97
600.0	78.76
601.0	67.83
602.0	81.77
603.0	77.10
604.0	68.55
605.0	68.62
606.0	69.30
607.0	62.95
608.0	66.59
609.0	58.97
610.0	60.76
611.0	60.76
612.0	52.30
613.0	51.73
614.0	56.46
615.0	48.42
616.0	48.21
617.0	46.98
618.0	47.88
619.0	49.23
620.0	48.77
621.0	44.57
622.0	47.45
623.0	43.18
624.0	46.57
625.0	44.67
626.0	41.69
627.0	38.30
628.0	34.25
629.0	35.28
630.0	38.01
631.0	30.99
632.0	39.45
633.0	37.23
634.0	34.03
635.0	31.84
636.0	30.98
637.0	29.79
638.0	28.12
639.0	29.73
640.0	31.41
641.0	26.29
642.0	26.40
643.0	25.44
644.0	23.93
645.0	21.79
646.0	22.68
647.0	23.56
648.0	21.96
649.0	24.52
650.0	25.62
651.0	23.48
652.0	18.86
653.0	22.68
654.0	18.03
655.0	19.24
656.0	21.39
657.0	21.77
658.0	15.21
659.0	15.31
660.0	15.77
661.0	19.08
662.0	17.77
663.0	17.16
664.0	14.45
665.0	15.85
666.0	12.57
667.0	14.01
668.0	12.82
669.0	12.80
670.0	11.64
671.0	13.15
672.0	12.15
673.0	14.60
674.0	11.00
675.0	13.54
676.0	14.07
677.0	10.41
678.0	7.616
679.0	11.60
680.0	9.002
681.0	12.03
682.0	10.41
683.0	13.26
684.0	11.11
685.0	9.854
686.0	9.656
687.0	9.333
688.0	10.21
689.0	9.504
690.0	12.66
691.0	12.70
692.0	12.11
693.0	8.896
694.0	7.606
695.0	7.803
696.0	8.786
697.0	9.787
698.0	7.568
699.0	9.318
700.0	7.685
701.0	5.936
702.0	6.649
703.0	7.229
704.0	8.649
705.0	14.25
706.0	9.144
707.0	5.930
708.0	4.472
709.0	11.15
710.0	7.314
711.0	8.900
712.0	7.112
713.0	9.583
714.0	9.482
715.0	5.669
716.0	6.946
717.0	6.521
718.0	6.117
719.0	12.27
720.0	7.249
721.0	7.301
722.0	9.144
723.0	13.79
724.0	8.064
725.0	9.308
726.0	6.025
727.0	10.39
728.0	9.910
729.0	4.707
730.0	8.911
731.0	7.965
732.0	9.583
733.0	5.313
734.0	7.732
735.0	10.13
736.0	8.808
737.0	7.034
738.0	7.313
739.0	5.957
740.0	7.159
741.0	6.237
742.0	8.042
743.0	6.798
744.0	7.838
745.0	8.729
746.0	7.279
747.0	8.705
748.0	8.321
749.0	5.748
750.0	4.496
751.0	8.313
752.0	4.181
753.0	4.659
754.0	5.422
755.0	6.635
756.0	2.106
757.0	6.430
758.0	5.062
759.0	5.095
760.0	8.065
761.0	3.655
762.0	5.720
763.0	9.507
764.0	6.017
765.0	5.869
766.0	7.901
767.0	6.417
768.0	5.373
769.0	7.991
770.0	6.644
771.0	7.308
772.0	5.065
773.0	6.058
774.0	7.946
775.0	7.370
776.0	5.922
777.0	7.477
778.0	5.592
779.0	4.719
780.0	6.881

Sample:	'wa-10(EM)
File name:	30.FDS
Run Date:	'16:23:22, 07/11/2024
Operator:	WXH
Comment:	'

Instrument
Model:	F-4600 FL Spectrophotometer
Serial Number:	3080-002
ROM Version:	5J24000 02

Instrument Parameters
Measurement type:	Wavelength scan
Scan mode:	Emission
Data mode:	Fluorescence
EX WL:	460.0 nm
EM  Start WL:	480.0 nm
EM  End WL:	780.0 nm
Scan speed:	1200 nm/min
Delay:	0.0 s
EX Slit:	2.5 nm
EM Slit:	2.5 nm
PMT Voltage:	600 V
Response:	Auto 
Corrected spectra:	Off
Shutter control:	On

Peak integration
Integration method:	Rectangular
Sensitivity:	1
Threshold:	1.000

Peaks
No.	Valley(nm)	Valley(Data)
1	484.2	33.14
2	485.6	35.84
3	494.0	71.71
4	505.8	181.4
5	511.2	252.6
6	513.0	238.9
7	517.0	267.8
8	518.8	257.3
9	526.8	266.8
10	529.4	251.4
11	531.4	242.5
12	534.6	232.9
13	539.2	222.5
14	541.8	218.3
15	544.2	218.2
16	546.8	208.1
17	550.2	213.1
18	552.8	204.0
19	563.8	162.2
20	569.4	161.2
21	572.0	154.2
22	575.0	142.2
23	578.2	116.5
24	582.6	112.1
25	586.4	88.68
26	592.0	88.82
27	595.4	84.26
28	598.0	78.18
29	600.2	68.83
30	602.6	70.03
31	606.4	63.45
32	611.0	50.80
33	614.8	46.94
34	618.6	47.29
35	621.0	45.11
36	625.0	35.42
37	627.0	37.16
38	631.2	29.92
39	634.2	23.34
40	640.0	24.05
41	641.4	24.45
42	645.2	23.20
43	649.4	18.07
44	651.4	17.27
45	655.6	13.55
46	658.4	16.64
47	660.4	14.29
48	663.0	13.77
49	665.0	11.15
50	667.8	12.85
51	670.0	9.375
52	674.0	7.947
53	676.4	9.019
54	679.4	8.364
55	681.4	7.994
56	687.4	4.585
57	689.4	6.069
58	692.0	8.296
59	694.6	6.595
60	697.8	5.106
61	704.6	6.062
62	706.4	7.273
63	709.8	4.031
64	714.6	5.246
65	719.6	4.066
66	721.8	6.043
67	723.8	4.749
68	728.0	4.407
69	733.2	4.808
70	736.6	3.799
71	739.2	5.243
72	742.4	3.698
73	744.2	5.112
74	748.0	3.357
75	752.8	1.837
76	759.0	5.725
77	763.2	3.829
78	765.4	2.914
79	771.2	3.471
80	775.6	2.035

Data Points
nm	Data
480.0	39.12
481.0	40.22
482.0	33.50
483.0	40.27
484.0	36.19
485.0	42.51
486.0	41.32
487.0	44.72
488.0	47.90
489.0	55.65
490.0	66.43
491.0	69.23
492.0	78.01
493.0	74.45
494.0	71.71
495.0	92.72
496.0	96.37
497.0	108.4
498.0	135.4
499.0	147.3
500.0	141.0
501.0	163.2
502.0	180.4
503.0	190.5
504.0	182.9
505.0	204.4
506.0	185.2
507.0	220.7
508.0	230.8
509.0	246.9
510.0	268.2
511.0	256.0
512.0	269.6
513.0	238.9
514.0	252.8
515.0	296.2
516.0	285.1
517.0	267.8
518.0	274.0
519.0	270.3
520.0	286.9
521.0	283.5
522.0	293.6
523.0	298.3
524.0	287.8
525.0	287.9
526.0	284.7
527.0	267.3
528.0	284.8
529.0	259.6
530.0	274.1
531.0	256.0
532.0	253.8
533.0	251.9
534.0	254.9
535.0	240.5
536.0	265.2
537.0	238.1
538.0	227.3
539.0	223.2
540.0	228.3
541.0	229.4
542.0	235.7
543.0	240.9
544.0	223.4
545.0	237.3
546.0	212.4
547.0	212.0
548.0	219.0
549.0	219.7
550.0	217.0
551.0	217.6
552.0	220.9
553.0	219.9
554.0	224.0
555.0	219.3
556.0	210.3
557.0	209.0
558.0	206.7
559.0	192.1
560.0	198.3
561.0	184.1
562.0	189.0
563.0	164.0
564.0	165.6
565.0	169.9
566.0	186.8
567.0	174.3
568.0	160.3
569.0	170.3
570.0	170.3
571.0	154.6
572.0	154.2
573.0	155.4
574.0	147.1
575.0	142.2
576.0	152.0
577.0	132.5
578.0	118.4
579.0	136.0
580.0	132.0
581.0	126.5
582.0	117.2
583.0	115.8
584.0	115.6
585.0	104.2
586.0	101.9
587.0	105.6
588.0	101.9
589.0	101.3
590.0	96.38
591.0	94.84
592.0	88.82
593.0	95.43
594.0	91.58
595.0	88.15
596.0	87.49
597.0	84.27
598.0	78.18
599.0	79.53
600.0	73.16
601.0	73.87
602.0	76.37
603.0	74.06
604.0	68.04
605.0	71.00
606.0	70.91
607.0	66.86
608.0	70.05
609.0	68.78
610.0	63.22
611.0	50.80
612.0	64.53
613.0	55.60
614.0	57.40
615.0	47.63
616.0	49.55
617.0	49.67
618.0	47.72
619.0	51.57
620.0	45.76
621.0	45.11
622.0	53.26
623.0	55.91
624.0	41.92
625.0	35.42
626.0	42.63
627.0	37.16
628.0	42.25
629.0	41.08
630.0	36.66
631.0	31.95
632.0	35.84
633.0	30.06
634.0	27.13
635.0	28.51
636.0	30.93
637.0	30.11
638.0	27.86
639.0	29.74
640.0	24.05
641.0	29.30
642.0	27.78
643.0	24.54
644.0	23.25
645.0	24.11
646.0	28.42
647.0	23.94
648.0	20.89
649.0	20.81
650.0	21.77
651.0	19.94
652.0	17.82
653.0	22.37
654.0	19.40
655.0	18.14
656.0	17.71
657.0	18.55
658.0	18.33
659.0	20.93
660.0	16.75
661.0	16.35
662.0	16.44
663.0	13.77
664.0	18.81
665.0	11.15
666.0	14.95
667.0	17.78
668.0	15.23
669.0	14.14
670.0	9.375
671.0	11.84
672.0	9.920
673.0	11.64
674.0	7.947
675.0	15.64
676.0	11.67
677.0	10.22
678.0	12.92
679.0	10.22
680.0	13.97
681.0	10.08
682.0	9.248
683.0	12.74
684.0	12.97
685.0	9.477
686.0	9.083
687.0	7.826
688.0	7.052
689.0	7.503
690.0	10.44
691.0	10.28
692.0	8.296
693.0	10.27
694.0	6.637
695.0	8.049
696.0	7.907
697.0	8.333
698.0	6.468
699.0	6.212
700.0	10.00
701.0	7.620
702.0	11.75
703.0	6.451
704.0	7.183
705.0	8.532
706.0	9.100
707.0	9.063
708.0	7.079
709.0	6.373
710.0	4.553
711.0	7.372
712.0	7.692
713.0	9.441
714.0	7.093
715.0	6.254
716.0	7.338
717.0	10.76
718.0	6.882
719.0	4.214
720.0	5.885
721.0	9.883
722.0	6.754
723.0	9.642
724.0	5.826
725.0	7.878
726.0	9.519
727.0	5.420
728.0	4.407
729.0	4.861
730.0	8.611
731.0	8.682
732.0	8.618
733.0	5.662
734.0	6.480
735.0	5.998
736.0	7.590
737.0	5.033
738.0	8.618
739.0	5.345
740.0	7.523
741.0	10.89
742.0	4.387
743.0	6.582
744.0	6.838
745.0	7.101
746.0	8.472
747.0	4.542
748.0	3.357
749.0	6.538
750.0	7.245
751.0	6.042
752.0	4.194
753.0	3.499
754.0	5.461
755.0	7.680
756.0	7.716
757.0	6.564
758.0	6.212
759.0	5.725
760.0	9.789
761.0	7.185
762.0	5.847
763.0	5.060
764.0	4.147
765.0	4.152
766.0	3.654
767.0	3.629
768.0	2.910
769.0	2.860
770.0	7.868
771.0	4.950
772.0	4.755
773.0	8.784
774.0	4.084
775.0	6.241
776.0	4.978
777.0	6.268
778.0	5.924
779.0	9.146
780.0	6.369

Sample:	'wa-11(EM)
File name:	30.FDS
Run Date:	'16:23:52, 07/11/2024
Operator:	WXH
Comment:	'

Instrument
Model:	F-4600 FL Spectrophotometer
Serial Number:	3080-002
ROM Version:	5J24000 02

Instrument Parameters
Measurement type:	Wavelength scan
Scan mode:	Emission
Data mode:	Fluorescence
EX WL:	460.0 nm
EM  Start WL:	480.0 nm
EM  End WL:	780.0 nm
Scan speed:	1200 nm/min
Delay:	0.0 s
EX Slit:	2.5 nm
EM Slit:	2.5 nm
PMT Voltage:	600 V
Response:	Auto 
Corrected spectra:	Off
Shutter control:	On

Peak integration
Integration method:	Rectangular
Sensitivity:	1
Threshold:	1.000

Peaks
No.	Valley(nm)	Valley(Data)
1	482.4	28.08
2	485.4	37.32
3	503.0	166.6
4	512.8	256.6
5	514.8	262.4
6	518.8	269.7
7	525.2	269.2
8	532.4	246.3
9	539.2	219.9
10	543.2	223.0
11	548.2	219.8
12	552.4	203.2
13	555.4	205.3
14	558.2	197.9
15	567.2	161.6
16	574.6	131.5
17	577.4	123.2
18	582.6	109.4
19	590.0	92.67
20	592.8	88.83
21	594.6	86.42
22	597.4	81.70
23	599.2	74.28
24	603.6	64.75
25	608.4	61.40
26	610.4	52.97
27	615.6	49.57
28	621.0	42.34
29	625.0	30.80
30	628.0	32.81
31	630.0	31.37
32	632.8	28.06
33	635.0	32.85
34	638.0	23.88
35	640.8	23.97
36	643.2	21.69
37	648.0	19.67
38	653.6	13.97
39	656.4	14.34
40	659.2	16.06
41	661.6	12.14
42	666.6	13.08
43	671.8	10.30
44	674.2	9.331
45	676.6	9.460
46	680.0	7.376
47	684.0	6.652
48	688.4	7.532
49	693.2	6.979
50	697.0	6.523
51	700.6	6.642
52	704.0	1.669
53	707.8	6.500
54	710.8	7.061
55	714.8	6.209
56	717.2	6.123
57	720.2	4.312
58	723.8	4.359
59	726.6	3.790
60	729.4	1.850
61	732.8	4.931
62	735.8	5.019
63	738.4	4.370
64	741.2	5.071
65	744.2	2.887
66	747.0	4.771
67	750.6	4.595
68	753.4	3.441
69	755.6	4.664
70	757.0	4.822
71	759.6	5.036
72	763.8	4.021
73	769.2	4.459
74	771.4	1.141
75	775.6	4.557
76	777.2	2.674

Data Points
nm	Data
480.0	36.33
481.0	38.18
482.0	29.24
483.0	37.28
484.0	32.69
485.0	39.43
486.0	42.01
487.0	44.20
488.0	45.06
489.0	53.55
490.0	58.43
491.0	62.31
492.0	68.31
493.0	88.76
494.0	82.23
495.0	90.66
496.0	106.7
497.0	116.4
498.0	109.5
499.0	123.8
500.0	139.1
501.0	161.2
502.0	169.6
503.0	166.6
504.0	184.0
505.0	199.4
506.0	205.9
507.0	237.7
508.0	237.9
509.0	246.0
510.0	265.0
511.0	261.9
512.0	264.7
513.0	263.4
514.0	267.1
515.0	264.7
516.0	282.5
517.0	280.5
518.0	274.6
519.0	281.7
520.0	288.9
521.0	287.7
522.0	296.2
523.0	286.6
524.0	286.0
525.0	269.6
526.0	279.5
527.0	273.9
528.0	271.2
529.0	281.9
530.0	266.8
531.0	252.2
532.0	249.4
533.0	268.7
534.0	245.1
535.0	254.6
536.0	257.3
537.0	246.3
538.0	230.7
539.0	234.2
540.0	246.2
541.0	250.0
542.0	224.9
543.0	226.4
544.0	229.2
545.0	229.2
546.0	237.6
547.0	237.1
548.0	229.7
549.0	239.3
550.0	216.2
551.0	221.1
552.0	209.2
553.0	210.1
554.0	220.1
555.0	211.9
556.0	220.4
557.0	221.4
558.0	207.0
559.0	209.9
560.0	218.5
561.0	204.1
562.0	199.7
563.0	184.2
564.0	191.4
565.0	183.2
566.0	159.9
567.0	162.2
568.0	179.8
569.0	171.7
570.0	158.8
571.0	157.3
572.0	151.0
573.0	148.2
574.0	139.2
575.0	134.7
576.0	144.0
577.0	138.4
578.0	138.5
579.0	125.3
580.0	124.2
581.0	130.3
582.0	110.3
583.0	121.4
584.0	112.6
585.0	109.3
586.0	116.9
587.0	111.9
588.0	96.90
589.0	92.99
590.0	92.67
591.0	101.4
592.0	100.4
593.0	94.90
594.0	96.73
595.0	91.41
596.0	95.31
597.0	83.01
598.0	87.77
599.0	76.68
600.0	78.25
601.0	85.02
602.0	84.71
603.0	67.15
604.0	75.39
605.0	74.22
606.0	75.47
607.0	65.80
608.0	63.26
609.0	68.65
610.0	60.68
611.0	59.96
612.0	61.64
613.0	57.34
614.0	53.14
615.0	54.78
616.0	51.69
617.0	54.86
618.0	48.60
619.0	47.88
620.0	46.40
621.0	42.34
622.0	47.39
623.0	47.83
624.0	42.35
625.0	30.80
626.0	38.72
627.0	45.29
628.0	32.81
629.0	36.87
630.0	31.37
631.0	34.70
632.0	39.35
633.0	30.20
634.0	37.31
635.0	32.85
636.0	33.64
637.0	33.07
638.0	23.88
639.0	29.77
640.0	26.09
641.0	25.83
642.0	23.95
643.0	24.51
644.0	22.00
645.0	23.37
646.0	24.77
647.0	22.86
648.0	19.67
649.0	22.28
650.0	25.21
651.0	20.41
652.0	22.20
653.0	19.55
654.0	15.52
655.0	18.81
656.0	16.25
657.0	17.53
658.0	16.38
659.0	16.70
660.0	16.75
661.0	15.84
662.0	12.72
663.0	14.16
664.0	17.75
665.0	17.43
666.0	15.85
667.0	16.59
668.0	13.07
669.0	15.26
670.0	16.52
671.0	15.11
672.0	12.49
673.0	15.44
674.0	9.463
675.0	16.19
676.0	12.21
677.0	11.18
678.0	13.45
679.0	11.78
680.0	7.376
681.0	12.20
682.0	9.084
683.0	7.547
684.0	6.652
685.0	9.104
686.0	8.092
687.0	11.30
688.0	8.690
689.0	10.68
690.0	9.820
691.0	9.234
692.0	7.829
693.0	7.425
694.0	9.485
695.0	8.366
696.0	8.635
697.0	6.523
698.0	8.923
699.0	11.90
700.0	9.031
701.0	8.297
702.0	10.55
703.0	9.340
704.0	1.669
705.0	6.047
706.0	12.20
707.0	8.644
708.0	7.647
709.0	7.885
710.0	8.910
711.0	8.710
712.0	8.518
713.0	12.11
714.0	6.563
715.0	10.30
716.0	7.791
717.0	7.474
718.0	6.681
719.0	9.450
720.0	4.582
721.0	9.116
722.0	8.483
723.0	6.025
724.0	6.339
725.0	6.350
726.0	7.506
727.0	5.651
728.0	7.773
729.0	5.392
730.0	6.847
731.0	9.378
732.0	8.216
733.0	5.676
734.0	6.584
735.0	5.600
736.0	5.666
737.0	5.209
738.0	6.770
739.0	7.935
740.0	7.498
741.0	6.795
742.0	8.146
743.0	9.061
744.0	4.482
745.0	5.912
746.0	7.437
747.0	4.771
748.0	6.807
749.0	8.163
750.0	7.150
751.0	4.663
752.0	7.720
753.0	4.901
754.0	6.254
755.0	7.716
756.0	6.438
757.0	4.822
758.0	8.211
759.0	6.053
760.0	5.683
761.0	5.955
762.0	6.775
763.0	6.668
764.0	5.299
765.0	5.850
766.0	7.877
767.0	7.492
768.0	5.668
769.0	5.266
770.0	6.911
771.0	4.050
772.0	4.382
773.0	6.266
774.0	5.395
775.0	4.586
776.0	9.488
777.0	4.719
778.0	5.752
779.0	7.061
780.0	6.750

Sample:	'wa-12(EM)
File name:	30.FDS
Run Date:	'16:24:22, 07/11/2024
Operator:	WXH
Comment:	'

Instrument
Model:	F-4600 FL Spectrophotometer
Serial Number:	3080-002
ROM Version:	5J24000 02

Instrument Parameters
Measurement type:	Wavelength scan
Scan mode:	Emission
Data mode:	Fluorescence
EX WL:	460.0 nm
EM  Start WL:	480.0 nm
EM  End WL:	780.0 nm
Scan speed:	1200 nm/min
Delay:	0.0 s
EX Slit:	2.5 nm
EM Slit:	2.5 nm
PMT Voltage:	600 V
Response:	Auto 
Corrected spectra:	Off
Shutter control:	On

Peak integration
Integration method:	Rectangular
Sensitivity:	1
Threshold:	1.000

Peaks
No.	Valley(nm)	Valley(Data)
1	486.2	37.92
2	489.2	50.29
3	512.6	246.4
4	516.0	275.8
5	517.6	274.7
6	520.8	286.2
7	527.2	253.4
8	528.8	253.3
9	530.8	258.2
10	536.0	238.1
11	539.8	227.8
12	541.6	231.2
13	544.4	210.7
14	546.2	216.8
15	550.4	211.2
16	552.8	198.5
17	554.8	202.4
18	556.8	193.1
19	558.8	189.1
20	563.6	175.8
21	566.4	163.9
22	573.8	135.6
23	577.8	122.9
24	581.4	113.2
25	585.2	106.0
26	591.6	81.71
27	596.0	79.44
28	599.2	77.30
29	602.8	65.70
30	604.8	68.91
31	607.2	53.98
32	616.8	47.86
33	620.4	46.41
34	624.6	33.55
35	629.2	32.10
36	634.6	29.38
37	636.4	29.79
38	640.4	21.85
39	643.0	24.86
40	646.4	18.47
41	652.2	17.70
42	654.2	15.18
43	657.8	15.05
44	664.0	12.52
45	665.2	10.69
46	668.4	6.281
47	674.2	12.31
48	679.0	8.790
49	681.2	10.27
50	685.2	7.273
51	689.6	8.446
52	692.2	5.911
53	696.0	6.664
54	698.8	7.779
55	701.0	8.148
56	702.6	5.702
57	704.2	5.400
58	707.6	5.811
59	711.4	6.282
60	716.8	4.766
61	722.8	5.606
62	725.2	4.866
63	731.2	4.442
64	734.0	3.226
65	735.2	6.057
66	739.8	2.361
67	743.2	4.135
68	745.4	3.773
69	751.2	4.849
70	754.0	3.478
71	757.6	3.188
72	760.4	4.305
73	762.4	6.260
74	765.2	4.897
75	767.2	2.913
76	770.4	3.433
77	771.8	5.502
78	780.0	5.374

Data Points
nm	Data
480.0	36.20
481.0	32.04
482.0	33.64
483.0	34.66
484.0	38.86
485.0	39.55
486.0	43.89
487.0	45.99
488.0	50.37
489.0	50.62
490.0	52.05
491.0	60.67
492.0	67.99
493.0	74.60
494.0	88.97
495.0	89.01
496.0	107.3
497.0	110.7
498.0	113.7
499.0	144.6
500.0	142.1
501.0	175.2
502.0	168.9
503.0	193.2
504.0	199.2
505.0	201.5
506.0	208.8
507.0	208.2
508.0	239.1
509.0	243.2
510.0	250.7
511.0	272.6
512.0	269.9
513.0	267.5
514.0	295.3
515.0	286.6
516.0	275.8
517.0	281.5
518.0	278.5
519.0	302.9
520.0	308.4
521.0	296.5
522.0	292.5
523.0	299.9
524.0	281.6
525.0	288.8
526.0	276.3
527.0	261.3
528.0	266.7
529.0	255.9
530.0	260.3
531.0	266.5
532.0	265.5
533.0	268.5
534.0	260.4
535.0	247.9
536.0	238.1
537.0	255.3
538.0	245.1
539.0	238.3
540.0	228.7
541.0	241.5
542.0	250.4
543.0	253.5
544.0	212.2
545.0	236.9
546.0	227.8
547.0	237.6
548.0	241.8
549.0	240.1
550.0	212.5
551.0	217.6
552.0	201.3
553.0	199.2
554.0	218.0
555.0	202.9
556.0	212.0
557.0	194.0
558.0	199.2
559.0	198.8
560.0	212.1
561.0	201.3
562.0	188.0
563.0	186.1
564.0	179.4
565.0	185.9
566.0	182.0
567.0	171.7
568.0	166.3
569.0	172.2
570.0	165.7
571.0	146.3
572.0	141.3
573.0	149.4
574.0	141.8
575.0	145.1
576.0	147.3
577.0	144.1
578.0	126.1
579.0	131.9
580.0	129.1
581.0	116.9
582.0	118.1
583.0	120.3
584.0	119.3
585.0	106.8
586.0	117.9
587.0	111.3
588.0	97.14
589.0	96.46
590.0	94.50
591.0	86.39
592.0	88.63
593.0	97.88
594.0	97.48
595.0	88.12
596.0	79.44
597.0	84.10
598.0	92.61
599.0	81.12
600.0	87.63
601.0	80.32
602.0	77.52
603.0	74.43
604.0	75.31
605.0	75.12
606.0	75.60
607.0	58.61
608.0	61.78
609.0	64.00
610.0	58.07
611.0	56.94
612.0	59.17
613.0	54.75
614.0	56.09
615.0	54.97
616.0	55.33
617.0	49.50
618.0	53.14
619.0	56.11
620.0	52.05
621.0	52.56
622.0	47.30
623.0	42.12
624.0	42.14
625.0	38.24
626.0	47.02
627.0	41.54
628.0	38.37
629.0	34.18
630.0	37.05
631.0	34.48
632.0	34.17
633.0	35.51
634.0	33.38
635.0	33.94
636.0	31.89
637.0	32.01
638.0	34.24
639.0	28.98
640.0	25.88
641.0	27.94
642.0	30.04
643.0	24.86
644.0	27.80
645.0	22.22
646.0	19.19
647.0	22.42
648.0	26.58
649.0	26.33
650.0	19.52
651.0	20.27
652.0	18.46
653.0	23.28
654.0	15.32
655.0	21.03
656.0	15.58
657.0	17.98
658.0	17.37
659.0	18.08
660.0	18.12
661.0	15.62
662.0	13.41
663.0	15.37
664.0	12.52
665.0	13.91
666.0	17.23
667.0	7.954
668.0	9.832
669.0	8.049
670.0	12.55
671.0	17.63
672.0	14.39
673.0	14.13
674.0	15.14
675.0	15.14
676.0	14.84
677.0	16.05
678.0	12.51
679.0	8.790
680.0	15.67
681.0	12.20
682.0	10.88
683.0	11.96
684.0	9.684
685.0	8.158
686.0	12.51
687.0	12.61
688.0	13.90
689.0	11.51
690.0	12.10
691.0	11.27
692.0	7.851
693.0	9.659
694.0	8.697
695.0	10.47
696.0	6.664
697.0	9.600
698.0	11.36
699.0	11.46
700.0	8.201
701.0	8.148
702.0	8.975
703.0	6.790
704.0	6.695
705.0	8.616
706.0	7.879
707.0	9.734
708.0	10.52
709.0	10.68
710.0	8.441
711.0	8.432
712.0	8.196
713.0	7.583
714.0	7.592
715.0	7.662
716.0	6.517
717.0	6.755
718.0	6.313
719.0	5.363
720.0	10.22
721.0	9.359
722.0	6.052
723.0	5.638
724.0	8.012
725.0	6.198
726.0	5.019
727.0	8.004
728.0	6.160
729.0	5.892
730.0	6.099
731.0	4.973
732.0	8.642
733.0	6.068
734.0	3.226
735.0	7.406
736.0	6.575
737.0	9.201
738.0	5.048
739.0	7.498
740.0	3.286
741.0	7.124
742.0	6.126
743.0	5.082
744.0	5.616
745.0	4.233
746.0	5.525
747.0	5.360
748.0	4.194
749.0	4.759
750.0	8.288
751.0	5.125
752.0	6.711
753.0	6.196
754.0	3.478
755.0	4.852
756.0	6.727
757.0	5.190
758.0	4.258
759.0	8.004
760.0	5.850
761.0	5.907
762.0	6.987
763.0	7.705
764.0	8.990
765.0	5.275
766.0	7.214
767.0	4.812
768.0	3.132
769.0	5.493
770.0	6.379
771.0	7.858
772.0	5.782
773.0	5.768
774.0	7.152
775.0	8.679
776.0	7.013
777.0	8.093
778.0	5.635
779.0	4.326
780.0	5.374

Sample:	'wa-13(EM)
File name:	30.FDS
Run Date:	'16:24:52, 07/11/2024
Operator:	WXH
Comment:	'

Instrument
Model:	F-4600 FL Spectrophotometer
Serial Number:	3080-002
ROM Version:	5J24000 02

Instrument Parameters
Measurement type:	Wavelength scan
Scan mode:	Emission
Data mode:	Fluorescence
EX WL:	460.0 nm
EM  Start WL:	480.0 nm
EM  End WL:	780.0 nm
Scan speed:	1200 nm/min
Delay:	0.0 s
EX Slit:	2.5 nm
EM Slit:	2.5 nm
PMT Voltage:	600 V
Response:	Auto 
Corrected spectra:	Off
Shutter control:	On

Peak integration
Integration method:	Rectangular
Sensitivity:	1
Threshold:	1.000

Peaks
No.	Valley(nm)	Valley(Data)
1	488.6	45.17
2	509.2	233.7
3	518.0	265.7
4	520.2	275.6
5	523.4	275.4
6	527.0	251.5
7	530.2	244.1
8	533.6	242.9
9	538.4	223.0
10	540.8	223.5
11	543.0	219.0
12	546.2	220.5
13	551.2	214.0
14	555.4	199.2
15	558.8	196.5
16	565.6	158.3
17	568.2	161.8
18	572.4	148.0
19	578.4	123.8
20	581.2	116.6
21	583.8	107.0
22	587.2	95.94
23	593.0	82.37
24	596.0	77.29
25	598.6	76.37
26	605.2	58.36
27	610.0	53.14
28	614.4	47.69
29	617.8	48.52
30	620.2	46.40
31	623.0	35.66
32	625.6	40.11
33	627.2	34.85
34	630.6	30.98
35	634.2	26.89
36	640.0	23.54
37	643.2	22.97
38	646.0	17.15
39	650.0	14.32
40	653.6	18.57
41	656.8	14.13
42	658.8	17.43
43	661.8	14.74
44	666.2	11.37
45	670.6	10.93
46	674.6	9.952
47	677.2	11.01
48	680.0	10.21
49	685.4	6.714
50	689.0	6.313
51	691.6	7.164
52	698.4	4.947
53	702.0	6.779
54	704.4	4.947
55	706.8	4.590
56	710.8	4.221
57	713.4	5.300
58	715.8	5.867
59	719.8	3.678
60	723.6	5.301
61	725.4	5.385
62	730.2	4.513
63	732.8	3.636
64	736.8	2.323
65	740.6	3.868
66	744.0	4.071
67	748.0	3.780
68	752.8	3.365
69	756.8	2.282
70	760.2	4.273
71	763.4	3.605
72	766.0	4.433
73	771.2	4.404
74	773.0	4.947
75	776.8	3.927
76	780.0	4.590

Data Points
nm	Data
480.0	39.17
481.0	36.28
482.0	31.88
483.0	35.77
484.0	42.16
485.0	42.25
486.0	38.09
487.0	45.58
488.0	51.08
489.0	51.77
490.0	58.60
491.0	56.19
492.0	73.35
493.0	74.90
494.0	80.90
495.0	86.43
496.0	99.57
497.0	118.4
498.0	128.7
499.0	140.6
500.0	142.0
501.0	153.7
502.0	180.8
503.0	183.4
504.0	200.0
505.0	206.0
506.0	211.4
507.0	213.2
508.0	240.8
509.0	237.7
510.0	243.0
511.0	252.5
512.0	266.8
513.0	276.8
514.0	283.8
515.0	283.3
516.0	266.2
517.0	275.6
518.0	265.7
519.0	273.0
520.0	288.0
521.0	280.7
522.0	286.1
523.0	283.9
524.0	285.2
525.0	291.3
526.0	254.4
527.0	251.5
528.0	285.5
529.0	271.7
530.0	245.1
531.0	246.6
532.0	263.4
533.0	249.6
534.0	252.3
535.0	258.4
536.0	256.4
537.0	249.7
538.0	242.0
539.0	235.4
540.0	240.2
541.0	227.8
542.0	235.2
543.0	219.0
544.0	235.0
545.0	234.8
546.0	230.8
547.0	233.4
548.0	231.7
549.0	230.1
550.0	222.9
551.0	216.6
552.0	233.7
553.0	230.2
554.0	227.5
555.0	211.8
556.0	203.4
557.0	223.0
558.0	192.8
559.0	205.8
560.0	211.9
561.0	190.8
562.0	191.0
563.0	176.1
564.0	178.9
565.0	167.4
566.0	163.3
567.0	171.3
568.0	167.9
569.0	174.8
570.0	154.8
571.0	158.2
572.0	153.7
573.0	153.6
574.0	145.4
575.0	151.3
576.0	134.6
577.0	144.5
578.0	133.1
579.0	124.4
580.0	134.8
581.0	119.0
582.0	125.2
583.0	115.7
584.0	109.6
585.0	107.9
586.0	108.1
587.0	101.0
588.0	100.6
589.0	109.3
590.0	105.0
591.0	95.07
592.0	92.23
593.0	82.37
594.0	92.30
595.0	80.51
596.0	77.29
597.0	83.33
598.0	80.16
599.0	81.70
600.0	80.70
601.0	80.00
602.0	76.03
603.0	70.69
604.0	64.18
605.0	61.56
606.0	66.62
607.0	60.37
608.0	69.70
609.0	54.68
610.0	53.14
611.0	53.59
612.0	59.20
613.0	54.21
614.0	50.00
615.0	54.84
616.0	60.17
617.0	50.53
618.0	48.62
619.0	58.77
620.0	46.95
621.0	50.70
622.0	47.60
623.0	35.66
624.0	45.11
625.0	40.74
626.0	43.69
627.0	36.61
628.0	44.38
629.0	44.68
630.0	37.25
631.0	38.51
632.0	38.29
633.0	37.58
634.0	29.51
635.0	30.17
636.0	30.73
637.0	34.44
638.0	41.60
639.0	30.81
640.0	23.54
641.0	23.59
642.0	30.95
643.0	24.56
644.0	25.56
645.0	23.35
646.0	17.15
647.0	22.82
648.0	18.62
649.0	17.69
650.0	14.32
651.0	18.70
652.0	26.50
653.0	21.58
654.0	20.47
655.0	21.08
656.0	19.30
657.0	17.51
658.0	21.34
659.0	20.87
660.0	15.80
661.0	18.68
662.0	14.99
663.0	16.21
664.0	17.90
665.0	15.44
666.0	12.10
667.0	12.14
668.0	16.37
669.0	14.66
670.0	11.83
671.0	11.91
672.0	13.55
673.0	12.94
674.0	11.50
675.0	14.90
676.0	12.96
677.0	11.83
678.0	15.90
679.0	13.15
680.0	10.21
681.0	16.37
682.0	12.87
683.0	10.38
684.0	8.275
685.0	8.149
686.0	9.957
687.0	8.939
688.0	10.32
689.0	6.313
690.0	10.93
691.0	11.10
692.0	8.634
693.0	11.71
694.0	10.83
695.0	10.48
696.0	8.403
697.0	8.533
698.0	5.157
699.0	7.545
700.0	8.090
701.0	10.33
702.0	6.779
703.0	8.647
704.0	6.152
705.0	7.593
706.0	8.910
707.0	5.655
708.0	9.392
709.0	6.188
710.0	6.220
711.0	4.470
712.0	7.655
713.0	8.455
714.0	8.187
715.0	7.584
716.0	8.163
717.0	7.704
718.0	6.649
719.0	5.061
720.0	4.295
721.0	6.812
722.0	6.780
723.0	8.782
724.0	7.275
725.0	6.700
726.0	9.784
727.0	8.228
728.0	5.059
729.0	4.751
730.0	5.608
731.0	5.328
732.0	11.51
733.0	3.962
734.0	6.731
735.0	6.293
736.0	4.837
737.0	3.353
738.0	8.886
739.0	7.910
740.0	8.915
741.0	5.401
742.0	8.469
743.0	4.335
744.0	4.071
745.0	3.578
746.0	10.38
747.0	4.956
748.0	3.780
749.0	5.389
750.0	7.198
751.0	7.285
752.0	5.369
753.0	6.212
754.0	6.326
755.0	4.349
756.0	3.223
757.0	2.673
758.0	5.105
759.0	8.251
760.0	6.430
761.0	7.656
762.0	5.170
763.0	3.987
764.0	6.814
765.0	10.09
766.0	4.433
767.0	6.064
768.0	5.908
769.0	6.024
770.0	7.381
771.0	4.873
772.0	10.18
773.0	4.947
774.0	5.388
775.0	6.058
776.0	4.954
777.0	5.404
778.0	5.329
779.0	6.162
780.0	4.590

Sample:	'wa-14(EM)
File name:	30.FDS
Run Date:	'16:25:23, 07/11/2024
Operator:	WXH
Comment:	'

Instrument
Model:	F-4600 FL Spectrophotometer
Serial Number:	3080-002
ROM Version:	5J24000 02

Instrument Parameters
Measurement type:	Wavelength scan
Scan mode:	Emission
Data mode:	Fluorescence
EX WL:	460.0 nm
EM  Start WL:	480.0 nm
EM  End WL:	780.0 nm
Scan speed:	1200 nm/min
Delay:	0.0 s
EX Slit:	2.5 nm
EM Slit:	2.5 nm
PMT Voltage:	600 V
Response:	Auto 
Corrected spectra:	Off
Shutter control:	On

Peak integration
Integration method:	Rectangular
Sensitivity:	1
Threshold:	1.000

Peaks
No.	Valley(nm)	Valley(Data)
1	484.0	31.72
2	504.4	189.9
3	515.6	268.3
4	518.4	283.0
5	521.4	266.9
6	525.2	273.8
7	529.6	265.2
8	532.0	249.2
9	537.0	222.6
10	539.8	231.3
11	544.0	233.1
12	546.0	225.4
13	551.2	215.0
14	556.4	196.6
15	560.0	179.5
16	562.8	172.0
17	570.0	158.8
18	575.2	130.8
19	577.2	131.1
20	581.0	115.7
21	584.2	106.4
22	587.2	106.4
23	591.8	89.17
24	596.2	85.35
25	602.0	69.85
26	607.8	59.09
27	612.4	52.48
28	615.4	47.05
29	619.6	37.84
30	622.8	40.89
31	625.0	40.58
32	627.4	35.70
33	630.4	27.99
34	635.4	28.09
35	638.0	25.96
36	640.4	25.18
37	645.2	20.66
38	648.8	18.54
39	652.6	16.32
40	656.4	15.18
41	659.0	17.10
42	663.0	12.42
43	665.0	10.77
44	672.2	9.593
45	676.4	7.568
46	679.0	9.349
47	684.0	9.185
48	686.6	8.570
49	691.6	7.044
50	693.4	8.240
51	698.2	7.996
52	700.2	8.076
53	702.2	9.845
54	707.8	3.629
55	711.4	5.036
56	714.0	4.412
57	717.2	5.023
58	720.8	6.213
59	724.2	2.717
60	727.4	4.225
61	734.0	4.175
62	738.8	4.367
63	740.8	3.796
64	745.2	3.787
65	748.2	3.209
66	750.0	3.857
67	752.2	4.680
68	755.6	4.834
69	758.0	5.036
70	762.0	2.782
71	765.4	4.582
72	767.8	4.812
73	770.4	5.520
74	774.6	2.896
75	777.6	3.195

Data Points
nm	Data
480.0	39.32
481.0	31.57
482.0	38.42
483.0	32.85
484.0	31.72
485.0	35.23
486.0	35.68
487.0	46.62
488.0	48.78
489.0	50.18
490.0	57.68
491.0	66.82
492.0	68.35
493.0	82.21
494.0	77.38
495.0	92.54
496.0	94.62
497.0	109.8
498.0	123.2
499.0	133.5
500.0	142.7
501.0	153.2
502.0	175.0
503.0	193.2
504.0	190.5
505.0	209.8
506.0	220.1
507.0	237.6
508.0	237.2
509.0	247.6
510.0	255.5
511.0	258.1
512.0	259.2
513.0	269.5
514.0	263.7
515.0	281.6
516.0	277.6
517.0	289.0
518.0	293.0
519.0	304.4
520.0	287.2
521.0	280.3
522.0	281.3
523.0	285.2
524.0	285.3
525.0	280.5
526.0	276.7
527.0	287.6
528.0	286.4
529.0	276.0
530.0	278.6
531.0	277.2
532.0	249.2
533.0	258.2
534.0	248.3
535.0	256.8
536.0	226.4
537.0	222.6
538.0	253.7
539.0	245.4
540.0	236.2
541.0	256.6
542.0	235.7
543.0	246.0
544.0	233.1
545.0	251.3
546.0	225.4
547.0	240.2
548.0	230.3
549.0	229.5
550.0	217.4
551.0	219.4
552.0	222.1
553.0	219.7
554.0	216.9
555.0	208.8
556.0	202.2
557.0	210.4
558.0	217.0
559.0	218.7
560.0	179.5
561.0	196.2
562.0	196.9
563.0	179.0
564.0	178.4
565.0	180.5
566.0	180.3
567.0	179.2
568.0	169.7
569.0	158.4
570.0	158.8
571.0	170.7
572.0	163.7
573.0	138.5
574.0	143.1
575.0	141.8
576.0	142.9
577.0	132.6
578.0	138.8
579.0	133.2
580.0	127.8
581.0	115.7
582.0	126.8
583.0	129.5
584.0	113.3
585.0	115.0
586.0	108.7
587.0	111.6
588.0	114.8
589.0	111.7
590.0	98.48
591.0	94.35
592.0	93.56
593.0	99.06
594.0	99.52
595.0	91.67
596.0	87.65
597.0	86.09
598.0	99.18
599.0	88.44
600.0	94.40
601.0	80.95
602.0	69.85
603.0	72.09
604.0	80.02
605.0	72.66
606.0	72.38
607.0	63.33
608.0	60.80
609.0	62.15
610.0	63.94
611.0	66.05
612.0	61.51
613.0	59.14
614.0	52.50
615.0	52.31
616.0	49.79
617.0	46.01
618.0	50.74
619.0	47.78
620.0	45.13
621.0	46.74
622.0	45.47
623.0	45.93
624.0	45.79
625.0	40.58
626.0	45.09
627.0	38.88
628.0	42.11
629.0	38.78
630.0	35.86
631.0	30.53
632.0	33.49
633.0	30.52
634.0	35.55
635.0	29.58
636.0	30.25
637.0	28.18
638.0	25.96
639.0	31.89
640.0	29.29
641.0	28.38
642.0	27.11
643.0	34.53
644.0	27.63
645.0	22.86
646.0	24.72
647.0	24.38
648.0	22.43
649.0	19.20
650.0	24.45
651.0	20.85
652.0	20.27
653.0	24.18
654.0	21.68
655.0	22.88
656.0	16.86
657.0	27.56
658.0	18.14
659.0	17.10
660.0	22.85
661.0	22.24
662.0	16.84
663.0	12.42
664.0	15.47
665.0	10.77
666.0	14.47
667.0	13.25
668.0	17.18
669.0	17.35
670.0	16.96
671.0	15.32
672.0	9.606
673.0	11.92
674.0	13.81
675.0	13.19
676.0	11.44
677.0	9.219
678.0	11.56
679.0	9.349
680.0	10.45
681.0	12.44
682.0	12.90
683.0	12.69
684.0	9.185
685.0	12.18
686.0	10.25
687.0	10.22
688.0	12.49
689.0	10.25
690.0	8.548
691.0	9.332
692.0	11.91
693.0	9.495
694.0	12.77
695.0	8.889
696.0	9.668
697.0	13.32
698.0	8.084
699.0	11.01
700.0	9.364
701.0	13.07
702.0	10.37
703.0	13.63
704.0	10.58
705.0	8.005
706.0	8.862
707.0	5.566
708.0	5.035
709.0	7.795
710.0	8.501
711.0	7.839
712.0	8.141
713.0	7.838
714.0	4.412
715.0	7.889
716.0	7.633
717.0	5.678
718.0	7.316
719.0	7.183
720.0	9.344
721.0	7.184
722.0	10.12
723.0	5.243
724.0	3.183
725.0	9.031
726.0	4.843
727.0	5.409
728.0	6.090
729.0	5.773
730.0	8.135
731.0	6.890
732.0	5.856
733.0	4.296
734.0	4.175
735.0	4.507
736.0	7.465
737.0	8.910
738.0	7.619
739.0	4.879
740.0	11.10
741.0	6.793
742.0	6.504
743.0	10.52
744.0	6.473
745.0	4.528
746.0	7.895
747.0	4.563
748.0	5.517
749.0	5.363
750.0	3.857
751.0	6.399
752.0	4.840
753.0	9.014
754.0	7.448
755.0	6.019
756.0	8.172
757.0	7.481
758.0	5.036
759.0	8.257
760.0	5.502
761.0	7.563
762.0	2.782
763.0	3.703
764.0	5.325
765.0	5.511
766.0	4.938
767.0	7.703
768.0	5.711
769.0	6.684
770.0	6.876
771.0	9.028
772.0	9.534
773.0	7.611
774.0	5.167
775.0	4.434
776.0	6.324
777.0	8.431
778.0	5.769
779.0	6.652
780.0	8.423

Sample:	'wa-15(EM)
File name:	30.FDS
Run Date:	'16:25:53, 07/11/2024
Operator:	WXH
Comment:	'

Instrument
Model:	F-4600 FL Spectrophotometer
Serial Number:	3080-002
ROM Version:	5J24000 02

Instrument Parameters
Measurement type:	Wavelength scan
Scan mode:	Emission
Data mode:	Fluorescence
EX WL:	460.0 nm
EM  Start WL:	480.0 nm
EM  End WL:	780.0 nm
Scan speed:	1200 nm/min
Delay:	0.0 s
EX Slit:	2.5 nm
EM Slit:	2.5 nm
PMT Voltage:	600 V
Response:	Auto 
Corrected spectra:	Off
Shutter control:	On

Peak integration
Integration method:	Rectangular
Sensitivity:	1
Threshold:	1.000

Peaks
No.	Valley(nm)	Valley(Data)
1	487.0	37.14
2	514.2	268.8
3	516.2	274.4
4	522.4	265.8
5	525.6	276.5
6	528.0	264.1
7	535.2	234.9
8	538.0	234.5
9	544.4	230.5
10	548.6	208.3
11	553.8	191.7
12	557.0	197.8
13	558.8	195.8
14	562.0	181.9
15	564.8	176.5
16	567.2	161.3
17	573.0	139.6
18	575.6	135.7
19	580.8	116.0
20	585.6	107.3
21	589.8	95.73
22	593.4	88.66
23	597.6	85.42
24	599.4	70.99
25	603.2	66.21
26	607.2	61.36
27	611.0	51.70
28	617.6	39.98
29	623.8	32.04
30	625.6	35.38
31	631.2	28.13
32	635.4	26.35
33	638.0	26.57
34	643.4	21.46
35	645.2	20.49
36	647.0	19.37
37	650.0	18.43
38	659.2	13.95
39	661.6	12.88
40	664.2	12.72
41	667.2	10.98
42	670.2	10.31
43	675.8	8.568
44	679.2	8.223
45	681.8	6.711
46	687.0	6.748
47	691.0	7.291
48	695.0	7.694
49	699.4	6.226
50	702.6	6.618
51	707.2	5.414
52	709.8	4.566
53	711.8	5.846
54	714.8	5.194
55	717.8	6.207
56	722.0	4.441
57	728.0	5.735
58	730.2	4.535
59	735.0	3.715
60	738.8	4.348
61	742.6	4.437
62	744.8	4.576
63	748.4	3.454
64	753.2	4.257
65	758.2	2.237
66	761.8	2.809
67	764.2	2.911
68	767.0	2.654
69	771.6	3.697
70	774.2	4.513
71	777.6	4.212

Data Points
nm	Data
480.0	32.50
481.0	37.63
482.0	36.01
483.0	36.78
484.0	37.76
485.0	40.46
486.0	47.71
487.0	37.14
488.0	43.92
489.0	54.01
490.0	52.28
491.0	61.09
492.0	68.48
493.0	78.40
494.0	91.89
495.0	97.61
496.0	102.8
497.0	117.3
498.0	123.7
499.0	139.3
500.0	151.9
501.0	167.3
502.0	162.0
503.0	174.0
504.0	198.6
505.0	219.9
506.0	218.7
507.0	223.9
508.0	226.7
509.0	253.3
510.0	240.6
511.0	271.8
512.0	280.2
513.0	283.0
514.0	272.6
515.0	284.4
516.0	279.4
517.0	288.5
518.0	299.8
519.0	288.3
520.0	290.0
521.0	283.8
522.0	275.2
523.0	288.7
524.0	288.9
525.0	296.1
526.0	286.5
527.0	279.8
528.0	264.1
529.0	273.3
530.0	287.9
531.0	282.3
532.0	263.6
533.0	251.0
534.0	265.8
535.0	245.5
536.0	250.7
537.0	244.3
538.0	234.5
539.0	243.2
540.0	241.3
541.0	244.6
542.0	236.4
543.0	240.9
544.0	238.3
545.0	240.4
546.0	231.2
547.0	231.9
548.0	227.2
549.0	211.3
550.0	222.6
551.0	217.9
552.0	208.0
553.0	209.7
554.0	193.0
555.0	212.1
556.0	212.6
557.0	197.8
558.0	214.3
559.0	201.5
560.0	221.2
561.0	194.9
562.0	181.9
563.0	192.3
564.0	181.5
565.0	186.2
566.0	185.3
567.0	170.5
568.0	177.2
569.0	162.5
570.0	155.4
571.0	159.6
572.0	147.3
573.0	139.6
574.0	153.9
575.0	136.5
576.0	144.6
577.0	146.3
578.0	119.0
579.0	118.9
580.0	120.8
581.0	116.1
582.0	119.4
583.0	118.0
584.0	118.3
585.0	115.0
586.0	108.8
587.0	113.5
588.0	111.0
589.0	107.8
590.0	106.7
591.0	92.12
592.0	94.74
593.0	96.87
594.0	100.4
595.0	91.36
596.0	87.43
597.0	86.96
598.0	89.48
599.0	84.06
600.0	74.61
601.0	75.70
602.0	84.64
603.0	72.98
604.0	73.25
605.0	79.55
606.0	72.10
607.0	63.57
608.0	68.20
609.0	70.08
610.0	54.83
611.0	51.70
612.0	64.57
613.0	60.12
614.0	61.21
615.0	57.95
616.0	50.06
617.0	53.59
618.0	42.37
619.0	50.97
620.0	52.33
621.0	47.15
622.0	43.63
623.0	42.54
624.0	34.40
625.0	40.05
626.0	35.65
627.0	39.71
628.0	45.20
629.0	40.90
630.0	33.79
631.0	30.44
632.0	29.23
633.0	35.95
634.0	38.79
635.0	31.18
636.0	28.20
637.0	32.69
638.0	26.57
639.0	33.08
640.0	26.96
641.0	27.95
642.0	25.24
643.0	23.36
644.0	26.69
645.0	24.10
646.0	26.73
647.0	19.37
648.0	22.42
649.0	25.19
650.0	18.43
651.0	21.77
652.0	22.04
653.0	17.54
654.0	19.34
655.0	21.93
656.0	20.54
657.0	17.19
658.0	16.63
659.0	14.35
660.0	17.37
661.0	14.57
662.0	16.20
663.0	21.36
664.0	15.23
665.0	14.97
666.0	14.65
667.0	14.04
668.0	15.57
669.0	13.16
670.0	12.73
671.0	12.02
672.0	9.395
673.0	10.75
674.0	8.162
675.0	10.02
676.0	11.59
677.0	11.24
678.0	10.72
679.0	10.08
680.0	10.86
681.0	13.73
682.0	9.604
683.0	12.80
684.0	12.30
685.0	11.93
686.0	11.60
687.0	6.748
688.0	9.517
689.0	9.743
690.0	12.41
691.0	7.291
692.0	12.59
693.0	12.89
694.0	13.55
695.0	7.694
696.0	11.85
697.0	11.49
698.0	10.48
699.0	9.674
700.0	9.492
701.0	10.06
702.0	8.978
703.0	8.616
704.0	7.521
705.0	13.51
706.0	6.598
707.0	7.082
708.0	6.714
709.0	6.562
710.0	6.003
711.0	8.537
712.0	6.769
713.0	6.034
714.0	5.914
715.0	6.575
716.0	9.339
717.0	6.272
718.0	9.468
719.0	9.597
720.0	9.456
721.0	7.998
722.0	4.441
723.0	6.946
724.0	8.027
725.0	7.347
726.0	8.990
727.0	9.149
728.0	5.735
729.0	9.744
730.0	4.832
731.0	4.630
732.0	7.679
733.0	6.385
734.0	5.401
735.0	3.715
736.0	4.740
737.0	7.238
738.0	6.326
739.0	5.876
740.0	5.764
741.0	6.843
742.0	5.186
743.0	4.712
744.0	8.980
745.0	7.305
746.0	7.969
747.0	9.855
748.0	4.743
749.0	7.655
750.0	5.225
751.0	10.35
752.0	8.525
753.0	5.015
754.0	6.479
755.0	7.419
756.0	5.505
757.0	4.289
758.0	3.162
759.0	2.943
760.0	4.276
761.0	3.415
762.0	4.577
763.0	4.365
764.0	3.299
765.0	5.620
766.0	5.854
767.0	2.654
768.0	3.488
769.0	6.914
770.0	6.426
771.0	6.381
772.0	7.610
773.0	5.169
774.0	6.259
775.0	12.57
776.0	6.978
777.0	6.900
778.0	5.232
779.0	5.918
780.0	6.068

Sample:	'wa-16(EM)
File name:	30.FDS
Run Date:	'16:26:23, 07/11/2024
Operator:	WXH
Comment:	'

Instrument
Model:	F-4600 FL Spectrophotometer
Serial Number:	3080-002
ROM Version:	5J24000 02

Instrument Parameters
Measurement type:	Wavelength scan
Scan mode:	Emission
Data mode:	Fluorescence
EX WL:	460.0 nm
EM  Start WL:	480.0 nm
EM  End WL:	780.0 nm
Scan speed:	1200 nm/min
Delay:	0.0 s
EX Slit:	2.5 nm
EM Slit:	2.5 nm
PMT Voltage:	600 V
Response:	Auto 
Corrected spectra:	Off
Shutter control:	On

Peak integration
Integration method:	Rectangular
Sensitivity:	1
Threshold:	1.000

Peaks
No.	Valley(nm)	Valley(Data)
1	482.0	31.08
2	490.2	57.45
3	504.6	184.2
4	512.6	255.2
5	515.8	276.0
6	519.6	268.6
7	523.8	275.2
8	526.4	270.9
9	529.2	247.6
10	534.0	245.3
11	537.8	233.4
12	542.2	220.6
13	545.4	220.1
14	548.8	215.9
15	550.8	203.7
16	553.4	208.0
17	557.8	191.7
18	567.6	163.2
19	569.6	154.4
20	577.8	123.9
21	583.4	103.5
22	586.4	105.2
23	595.8	83.33
24	599.6	76.20
25	606.0	65.55
26	609.0	59.69
27	611.0	53.00
28	614.2	54.87
29	616.4	47.10
30	619.4	41.36
31	624.0	38.86
32	628.0	35.37
33	630.2	35.37
34	634.2	23.45
35	637.8	25.41
36	639.0	27.13
37	643.0	19.90
38	644.4	17.57
39	646.2	18.74
40	648.8	21.95
41	650.8	20.88
42	652.8	17.69
43	656.0	14.96
44	659.2	14.37
45	661.2	12.70
46	663.6	14.46
47	666.2	11.11
48	669.8	8.059
49	674.0	10.19
50	676.6	9.632
51	682.2	6.549
52	684.2	7.121
53	686.8	8.099
54	692.8	5.656
55	695.4	6.241
56	700.8	5.539
57	704.4	5.806
58	707.6	6.926
59	712.0	4.139
60	717.6	6.015
61	720.6	5.989
62	723.2	5.064
63	726.0	3.959
64	728.0	7.315
65	729.8	6.992
66	732.6	5.646
67	734.8	5.731
68	737.8	2.593
69	742.2	4.228
70	744.2	6.821
71	748.8	4.431
72	750.6	4.780
73	753.4	3.371
74	755.8	4.314
75	759.6	5.916
76	761.6	3.176
77	765.0	6.347
78	769.2	5.758
79	772.2	3.950
80	777.0	3.976

Data Points
nm	Data
480.0	38.13
481.0	33.58
482.0	31.08
483.0	40.79
484.0	40.09
485.0	38.63
486.0	38.50
487.0	46.57
488.0	47.47
489.0	50.43
490.0	63.69
491.0	59.07
492.0	74.58
493.0	84.08
494.0	83.32
495.0	90.34
496.0	104.4
497.0	106.9
498.0	122.5
499.0	145.6
500.0	146.1
501.0	153.4
502.0	165.4
503.0	194.1
504.0	191.3
505.0	194.9
506.0	202.4
507.0	226.5
508.0	252.7
509.0	248.7
510.0	261.4
511.0	267.1
512.0	263.3
513.0	266.0
514.0	281.8
515.0	280.6
516.0	282.0
517.0	284.1
518.0	286.7
519.0	278.2
520.0	276.8
521.0	271.8
522.0	295.6
523.0	281.7
524.0	286.9
525.0	281.9
526.0	272.0
527.0	273.9
528.0	261.1
529.0	258.3
530.0	258.0
531.0	264.8
532.0	261.0
533.0	247.6
534.0	245.3
535.0	255.4
536.0	255.5
537.0	235.4
538.0	243.2
539.0	244.3
540.0	250.1
541.0	256.2
542.0	227.5
543.0	243.1
544.0	246.9
545.0	233.8
546.0	239.7
547.0	246.9
548.0	227.8
549.0	217.6
550.0	219.6
551.0	208.4
552.0	227.5
553.0	218.0
554.0	219.2
555.0	221.5
556.0	223.9
557.0	204.0
558.0	194.4
559.0	204.0
560.0	211.0
561.0	218.8
562.0	193.3
563.0	180.5
564.0	173.6
565.0	171.8
566.0	171.9
567.0	172.0
568.0	166.6
569.0	167.4
570.0	173.4
571.0	156.0
572.0	157.0
573.0	155.7
574.0	141.2
575.0	139.5
576.0	140.0
577.0	143.4
578.0	124.7
579.0	140.1
580.0	129.4
581.0	118.7
582.0	112.3
583.0	105.7
584.0	110.9
585.0	111.4
586.0	106.4
587.0	117.0
588.0	108.7
589.0	111.3
590.0	98.93
591.0	104.2
592.0	97.18
593.0	95.67
594.0	94.20
595.0	106.2
596.0	84.19
597.0	89.79
598.0	86.77
599.0	82.35
600.0	76.88
601.0	83.14
602.0	82.91
603.0	75.86
604.0	74.48
605.0	74.53
606.0	65.55
607.0	74.23
608.0	62.73
609.0	59.69
610.0	64.90
611.0	53.00
612.0	57.75
613.0	56.24
614.0	54.98
615.0	63.15
616.0	51.58
617.0	50.05
618.0	53.64
619.0	41.95
620.0	53.38
621.0	39.60
622.0	41.90
623.0	43.68
624.0	38.86
625.0	43.83
626.0	47.21
627.0	40.94
628.0	35.37
629.0	36.51
630.0	39.68
631.0	38.55
632.0	42.95
633.0	29.98
634.0	27.70
635.0	28.27
636.0	29.85
637.0	35.52
638.0	28.66
639.0	27.13
640.0	28.81
641.0	34.49
642.0	25.25
643.0	19.90
644.0	25.04
645.0	24.56
646.0	23.01
647.0	27.63
648.0	23.18
649.0	24.85
650.0	27.41
651.0	22.16
652.0	24.81
653.0	22.89
654.0	21.20
655.0	20.74
656.0	14.96
657.0	18.20
658.0	21.20
659.0	14.59
660.0	15.47
661.0	12.97
662.0	15.90
663.0	18.78
664.0	18.13
665.0	14.53
666.0	12.40
667.0	16.73
668.0	16.65
669.0	13.32
670.0	12.69
671.0	12.11
672.0	14.24
673.0	13.43
674.0	10.19
675.0	12.94
676.0	12.23
677.0	10.18
678.0	12.50
679.0	13.57
680.0	9.789
681.0	7.129
682.0	7.554
683.0	9.534
684.0	8.532
685.0	8.418
686.0	10.09
687.0	8.607
688.0	10.58
689.0	10.61
690.0	10.96
691.0	7.852
692.0	8.012
693.0	5.922
694.0	9.419
695.0	8.901
696.0	8.661
697.0	8.639
698.0	8.310
699.0	8.760
700.0	8.622
701.0	6.106
702.0	7.146
703.0	7.351
704.0	8.400
705.0	6.059
706.0	8.944
707.0	9.024
708.0	8.794
709.0	10.24
710.0	9.634
711.0	9.085
712.0	4.139
713.0	7.676
714.0	5.535
715.0	7.723
716.0	9.723
717.0	8.929
718.0	6.696
719.0	8.210
720.0	7.861
721.0	6.950
722.0	9.466
723.0	7.085
724.0	6.761
725.0	9.294
726.0	3.959
727.0	7.809
728.0	7.315
729.0	9.114
730.0	7.088
731.0	10.96
732.0	8.079
733.0	8.267
734.0	6.734
735.0	7.461
736.0	6.644
737.0	3.505
738.0	2.901
739.0	7.729
740.0	8.023
741.0	6.356
742.0	4.872
743.0	7.934
744.0	9.655
745.0	12.20
746.0	10.26
747.0	7.291
748.0	5.549
749.0	4.673
750.0	7.843
751.0	6.850
752.0	6.626
753.0	5.430
754.0	4.849
755.0	6.148
756.0	6.644
757.0	6.852
758.0	11.75
759.0	7.753
760.0	7.288
761.0	7.450
762.0	4.765
763.0	4.863
764.0	8.146
765.0	6.347
766.0	8.624
767.0	7.462
768.0	5.964
769.0	7.975
770.0	7.859
771.0	6.881
772.0	5.521
773.0	5.277
774.0	5.064
775.0	6.747
776.0	6.269
777.0	3.976
778.0	6.155
779.0	4.997
780.0	7.159

Sample:	'wa-17(EM)
File name:	30.FDS
Run Date:	'16:26:53, 07/11/2024
Operator:	WXH
Comment:	'

Instrument
Model:	F-4600 FL Spectrophotometer
Serial Number:	3080-002
ROM Version:	5J24000 02

Instrument Parameters
Measurement type:	Wavelength scan
Scan mode:	Emission
Data mode:	Fluorescence
EX WL:	460.0 nm
EM  Start WL:	480.0 nm
EM  End WL:	780.0 nm
Scan speed:	1200 nm/min
Delay:	0.0 s
EX Slit:	2.5 nm
EM Slit:	2.5 nm
PMT Voltage:	600 V
Response:	Auto 
Corrected spectra:	Off
Shutter control:	On

Peak integration
Integration method:	Rectangular
Sensitivity:	1
Threshold:	1.000

Peaks
No.	Valley(nm)	Valley(Data)
1	488.4	43.33
2	514.4	254.3
3	520.6	273.7
4	523.4	258.5
5	527.0	266.7
6	531.8	252.5
7	535.4	229.2
8	542.6	220.8
9	546.8	220.7
10	548.4	219.4
11	550.8	219.4
12	554.8	204.9
13	556.6	199.2
14	558.4	196.5
15	562.0	188.7
16	565.6	167.3
17	570.8	152.5
18	574.0	138.7
19	577.6	124.7
20	582.6	104.4
21	588.6	94.25
22	591.4	89.85
23	594.0	84.74
24	597.4	70.79
25	599.8	72.28
26	602.0	73.85
27	606.8	59.24
28	613.6	50.12
29	616.2	50.57
30	620.6	41.99
31	622.0	42.45
32	626.2	34.91
33	628.8	34.41
34	633.4	29.66
35	637.2	23.67
36	638.6	24.87
37	642.8	23.32
38	646.4	19.00
39	650.8	12.33
40	653.0	17.46
41	654.6	16.28
42	657.0	16.28
43	659.8	14.05
44	664.8	13.89
45	666.8	12.17
46	670.4	11.25
47	677.4	9.947
48	680.8	8.328
49	687.6	7.255
50	690.8	7.305
51	692.6	6.806
52	695.8	7.001
53	697.8	5.732
54	700.0	4.974
55	703.8	7.542
56	707.0	7.682
57	710.4	5.553
58	712.6	4.980
59	716.4	5.054
60	718.4	3.595
61	721.8	6.139
62	723.2	6.455
63	724.6	4.633
64	727.2	3.114
65	732.0	2.044
66	734.2	4.470
67	737.8	3.180
68	743.0	3.102
69	749.0	3.150
70	754.4	6.840
71	755.8	5.896
72	760.4	2.325
73	766.6	4.305
74	768.4	4.051
75	773.0	3.396
76	775.2	5.705
77	780.0	5.818

Data Points
nm	Data
480.0	29.28
481.0	32.21
482.0	33.76
483.0	33.61
484.0	38.68
485.0	44.14
486.0	40.97
487.0	41.76
488.0	47.33
489.0	47.40
490.0	54.31
491.0	62.81
492.0	67.15
493.0	70.65
494.0	83.46
495.0	90.79
496.0	100.9
497.0	119.9
498.0	123.3
499.0	149.8
500.0	151.9
501.0	151.3
502.0	177.6
503.0	181.0
504.0	192.1
505.0	200.0
506.0	215.0
507.0	227.0
508.0	233.8
509.0	262.7
510.0	265.8
511.0	276.5
512.0	267.0
513.0	258.6
514.0	261.5
515.0	277.4
516.0	283.0
517.0	278.4
518.0	286.8
519.0	288.7
520.0	284.3
521.0	280.6
522.0	292.3
523.0	277.7
524.0	270.3
525.0	279.4
526.0	289.1
527.0	266.7
528.0	277.5
529.0	274.6
530.0	257.2
531.0	253.1
532.0	258.4
533.0	272.5
534.0	257.9
535.0	242.9
536.0	246.1
537.0	250.2
538.0	238.8
539.0	260.4
540.0	247.5
541.0	239.8
542.0	234.5
543.0	235.6
544.0	243.2
545.0	251.8
546.0	226.7
547.0	228.5
548.0	228.9
549.0	224.9
550.0	234.0
551.0	222.1
552.0	223.8
553.0	219.6
554.0	207.6
555.0	215.2
556.0	216.2
557.0	216.9
558.0	200.8
559.0	212.9
560.0	201.3
561.0	197.2
562.0	188.7
563.0	200.1
564.0	190.0
565.0	179.6
566.0	177.0
567.0	186.3
568.0	184.3
569.0	168.9
570.0	158.3
571.0	156.0
572.0	151.6
573.0	143.5
574.0	138.7
575.0	134.1
576.0	136.1
577.0	133.2
578.0	133.4
579.0	129.3
580.0	141.5
581.0	133.4
582.0	116.9
583.0	109.1
584.0	125.6
585.0	113.8
586.0	101.3
587.0	101.5
588.0	103.1
589.0	101.2
590.0	109.9
591.0	106.4
592.0	98.09
593.0	105.4
594.0	84.74
595.0	94.57
596.0	88.12
597.0	78.37
598.0	76.70
599.0	80.07
600.0	73.89
601.0	73.68
602.0	73.85
603.0	79.86
604.0	72.62
605.0	74.64
606.0	67.15
607.0	61.01
608.0	65.01
609.0	68.31
610.0	59.20
611.0	60.67
612.0	55.29
613.0	51.13
614.0	58.81
615.0	57.83
616.0	52.61
617.0	51.87
618.0	50.04
619.0	49.80
620.0	46.18
621.0	50.13
622.0	42.45
623.0	43.89
624.0	43.66
625.0	41.32
626.0	38.13
627.0	41.08
628.0	40.63
629.0	35.48
630.0	36.85
631.0	33.47
632.0	35.16
633.0	36.18
634.0	32.37
635.0	32.86
636.0	31.17
637.0	25.54
638.0	29.09
639.0	26.81
640.0	28.85
641.0	28.09
642.0	27.59
643.0	25.35
644.0	25.60
645.0	23.07
646.0	22.33
647.0	23.25
648.0	24.01
649.0	24.99
650.0	19.23
651.0	18.80
652.0	18.24
653.0	17.46
654.0	21.75
655.0	20.03
656.0	21.94
657.0	16.28
658.0	20.44
659.0	17.69
660.0	14.59
661.0	19.41
662.0	19.13
663.0	17.90
664.0	14.89
665.0	14.09
666.0	17.74
667.0	13.52
668.0	13.28
669.0	16.34
670.0	15.13
671.0	14.43
672.0	17.61
673.0	11.82
674.0	13.61
675.0	12.73
676.0	13.57
677.0	11.19
678.0	12.61
679.0	15.17
680.0	11.90
681.0	9.838
682.0	11.16
683.0	13.58
684.0	14.01
685.0	10.77
686.0	8.283
687.0	10.79
688.0	8.184
689.0	10.93
690.0	9.286
691.0	7.899
692.0	9.393
693.0	7.400
694.0	8.163
695.0	8.901
696.0	7.993
697.0	8.222
698.0	8.455
699.0	10.08
700.0	4.974
701.0	6.660
702.0	13.52
703.0	9.970
704.0	8.144
705.0	8.855
706.0	9.127
707.0	7.682
708.0	11.63
709.0	10.75
710.0	6.849
711.0	7.011
712.0	5.566
713.0	5.416
714.0	9.668
715.0	10.82
716.0	6.363
717.0	6.075
718.0	6.165
719.0	7.678
720.0	12.41
721.0	7.932
722.0	6.508
723.0	7.209
724.0	9.577
725.0	7.784
726.0	7.144
727.0	4.227
728.0	6.194
729.0	10.46
730.0	5.961
731.0	8.299
732.0	2.044
733.0	6.004
734.0	5.474
735.0	9.109
736.0	5.976
737.0	4.102
738.0	3.555
739.0	3.477
740.0	6.276
741.0	7.006
742.0	7.782
743.0	3.102
744.0	7.610
745.0	9.386
746.0	10.56
747.0	6.930
748.0	8.215
749.0	3.150
750.0	4.723
751.0	5.989
752.0	9.294
753.0	7.873
754.0	6.966
755.0	9.574
756.0	6.084
757.0	7.548
758.0	7.832
759.0	3.786
760.0	4.028
761.0	4.345
762.0	4.045
763.0	6.957
764.0	5.758
765.0	6.687
766.0	4.437
767.0	5.372
768.0	6.752
769.0	4.540
770.0	5.681
771.0	7.481
772.0	3.618
773.0	3.396
774.0	6.099
775.0	7.350
776.0	6.968
777.0	7.551
778.0	7.249
779.0	5.375
780.0	5.818

Sample:	'wa-18(EM)
File name:	30.FDS
Run Date:	'16:27:24, 07/11/2024
Operator:	WXH
Comment:	'

Instrument
Model:	F-4600 FL Spectrophotometer
Serial Number:	3080-002
ROM Version:	5J24000 02

Instrument Parameters
Measurement type:	Wavelength scan
Scan mode:	Emission
Data mode:	Fluorescence
EX WL:	460.0 nm
EM  Start WL:	480.0 nm
EM  End WL:	780.0 nm
Scan speed:	1200 nm/min
Delay:	0.0 s
EX Slit:	2.5 nm
EM Slit:	2.5 nm
PMT Voltage:	600 V
Response:	Auto 
Corrected spectra:	Off
Shutter control:	On

Peak integration
Integration method:	Rectangular
Sensitivity:	1
Threshold:	1.000

Peaks
No.	Valley(nm)	Valley(Data)
1	487.6	39.13
2	508.6	226.8
3	510.6	239.8
4	516.8	262.7
5	521.6	268.3
6	527.0	257.1
7	528.8	249.9
8	531.4	247.9
9	534.8	244.9
10	537.8	232.6
11	542.4	224.9
12	548.2	215.1
13	549.8	214.0
14	555.6	191.4
15	558.4	201.3
16	564.0	169.8
17	566.0	178.7
18	568.8	162.1
19	572.0	144.1
20	574.2	130.5
21	576.6	121.1
22	579.0	119.9
23	581.8	107.8
24	586.4	91.62
25	587.8	94.45
26	594.0	84.91
27	597.2	82.84
28	605.6	61.18
29	612.2	53.72
30	616.8	51.97
31	619.0	51.21
32	622.6	37.60
33	628.8	31.85
34	631.6	31.86
35	633.8	30.41
36	635.6	28.85
37	639.6	25.41
38	642.6	22.65
39	649.4	18.13
40	652.2	15.84
41	656.4	14.24
42	659.2	14.09
43	661.6	13.93
44	663.6	14.10
45	667.4	11.10
46	670.0	13.45
47	676.0	9.789
48	680.8	9.722
49	683.8	8.357
50	686.4	9.288
51	690.8	4.437
52	694.4	8.337
53	696.8	6.168
54	698.2	7.711
55	702.2	6.033
56	705.8	5.487
57	707.8	5.867
58	710.2	5.533
59	712.6	6.822
60	717.0	5.108
61	719.2	6.807
62	722.2	4.223
63	726.4	5.271
64	730.0	5.906
65	732.8	4.188
66	737.4	4.430
67	741.6	3.884
68	745.8	5.076
69	748.6	3.492
70	751.4	3.487
71	755.8	4.095
72	762.8	3.837
73	765.6	2.837
74	770.0	2.982
75	771.2	5.503
76	775.2	2.883
77	778.4	4.118

Data Points
nm	Data
480.0	29.96
481.0	33.65
482.0	32.05
483.0	32.71
484.0	40.11
485.0	39.08
486.0	45.00
487.0	46.65
488.0	41.47
489.0	42.83
490.0	52.07
491.0	66.52
492.0	70.06
493.0	74.70
494.0	79.26
495.0	94.22
496.0	113.0
497.0	118.3
498.0	124.2
499.0	129.6
500.0	144.6
501.0	159.9
502.0	175.2
503.0	194.2
504.0	187.3
505.0	218.1
506.0	217.5
507.0	238.8
508.0	232.2
509.0	235.0
510.0	265.0
511.0	252.7
512.0	261.6
513.0	288.6
514.0	283.4
515.0	274.4
516.0	270.7
517.0	281.4
518.0	280.8
519.0	288.9
520.0	280.1
521.0	290.6
522.0	277.3
523.0	294.2
524.0	282.8
525.0	276.2
526.0	275.8
527.0	257.1
528.0	265.7
529.0	251.5
530.0	257.4
531.0	256.3
532.0	262.0
533.0	249.6
534.0	266.6
535.0	251.1
536.0	248.4
537.0	240.6
538.0	233.8
539.0	245.2
540.0	251.7
541.0	251.3
542.0	229.9
543.0	237.4
544.0	238.0
545.0	249.2
546.0	224.7
547.0	229.8
548.0	217.6
549.0	229.9
550.0	216.8
551.0	219.6
552.0	209.9
553.0	218.6
554.0	219.9
555.0	200.6
556.0	212.8
557.0	203.8
558.0	205.6
559.0	211.5
560.0	198.6
561.0	200.4
562.0	182.2
563.0	175.1
564.0	169.8
565.0	198.9
566.0	178.7
567.0	185.9
568.0	172.7
569.0	164.8
570.0	167.9
571.0	165.8
572.0	144.1
573.0	152.7
574.0	136.2
575.0	146.2
576.0	131.4
577.0	132.9
578.0	133.6
579.0	119.9
580.0	126.6
581.0	115.6
582.0	111.0
583.0	114.4
584.0	117.7
585.0	111.7
586.0	101.6
587.0	104.4
588.0	98.56
589.0	96.19
590.0	112.5
591.0	108.4
592.0	105.3
593.0	93.58
594.0	84.91
595.0	87.94
596.0	88.64
597.0	87.37
598.0	91.42
599.0	90.70
600.0	79.60
601.0	72.70
602.0	73.98
603.0	72.08
604.0	71.36
605.0	66.62
606.0	64.79
607.0	71.40
608.0	69.10
609.0	68.07
610.0	66.56
611.0	59.29
612.0	54.58
613.0	63.57
614.0	58.93
615.0	58.96
616.0	59.36
617.0	55.88
618.0	53.88
619.0	51.21
620.0	58.65
621.0	51.66
622.0	41.46
623.0	43.23
624.0	35.66
625.0	40.10
626.0	43.04
627.0	35.74
628.0	34.00
629.0	33.07
630.0	40.70
631.0	34.33
632.0	36.99
633.0	33.23
634.0	34.90
635.0	32.30
636.0	35.01
637.0	31.06
638.0	30.16
639.0	27.77
640.0	28.13
641.0	27.68
642.0	24.35
643.0	23.75
644.0	26.11
645.0	29.36
646.0	26.84
647.0	24.62
648.0	20.22
649.0	19.43
650.0	18.84
651.0	21.56
652.0	17.22
653.0	17.12
654.0	21.51
655.0	17.56
656.0	18.38
657.0	21.19
658.0	18.37
659.0	16.05
660.0	15.70
661.0	18.91
662.0	14.88
663.0	18.58
664.0	17.38
665.0	15.05
666.0	17.91
667.0	13.12
668.0	14.74
669.0	15.78
670.0	13.45
671.0	22.99
672.0	19.61
673.0	11.93
674.0	11.93
675.0	10.73
676.0	9.789
677.0	11.45
678.0	11.62
679.0	13.29
680.0	11.22
681.0	10.11
682.0	11.17
683.0	9.306
684.0	9.218
685.0	13.15
686.0	12.63
687.0	10.67
688.0	10.88
689.0	10.89
690.0	9.623
691.0	6.007
692.0	8.620
693.0	10.58
694.0	10.57
695.0	9.839
696.0	10.09
697.0	7.738
698.0	8.760
699.0	8.067
700.0	8.598
701.0	8.814
702.0	8.703
703.0	9.627
704.0	10.28
705.0	7.913
706.0	10.21
707.0	9.961
708.0	6.339
709.0	6.770
710.0	6.108
711.0	9.061
712.0	9.638
713.0	9.842
714.0	10.74
715.0	9.676
716.0	7.002
717.0	5.108
718.0	8.532
719.0	7.351
720.0	7.006
721.0	8.378
722.0	6.370
723.0	7.244
724.0	8.103
725.0	7.509
726.0	5.696
727.0	8.567
728.0	8.481
729.0	7.618
730.0	5.906
731.0	9.743
732.0	6.780
733.0	5.011
734.0	6.220
735.0	7.401
736.0	8.623
737.0	5.998
738.0	4.601
739.0	8.521
740.0	6.114
741.0	7.189
742.0	8.290
743.0	7.604
744.0	7.312
745.0	7.384
746.0	6.166
747.0	4.694
748.0	4.634
749.0	4.763
750.0	5.986
751.0	5.243
752.0	5.574
753.0	9.682
754.0	13.46
755.0	4.221
756.0	4.667
757.0	7.390
758.0	9.657
759.0	6.463
760.0	6.916
761.0	5.219
762.0	5.952
763.0	4.877
764.0	7.324
765.0	5.258
766.0	3.578
767.0	4.157
768.0	7.270
769.0	5.272
770.0	2.982
771.0	7.674
772.0	7.344
773.0	5.846
774.0	5.059
775.0	4.899
776.0	6.339
777.0	7.955
778.0	5.314
779.0	7.726
780.0	6.900

Sample:	'wa-19(EM)
File name:	30.FDS
Run Date:	'16:27:54, 07/11/2024
Operator:	WXH
Comment:	'

Instrument
Model:	F-4600 FL Spectrophotometer
Serial Number:	3080-002
ROM Version:	5J24000 02

Instrument Parameters
Measurement type:	Wavelength scan
Scan mode:	Emission
Data mode:	Fluorescence
EX WL:	460.0 nm
EM  Start WL:	480.0 nm
EM  End WL:	780.0 nm
Scan speed:	1200 nm/min
Delay:	0.0 s
EX Slit:	2.5 nm
EM Slit:	2.5 nm
PMT Voltage:	600 V
Response:	Auto 
Corrected spectra:	Off
Shutter control:	On

Peak integration
Integration method:	Rectangular
Sensitivity:	1
Threshold:	1.000

Peaks
No.	Valley(nm)	Valley(Data)
1	484.8	31.61
2	490.0	50.54
3	511.0	247.2
4	512.6	255.3
5	519.6	281.3
6	525.2	272.3
7	527.2	246.8
8	532.2	236.4
9	536.6	234.6
10	540.2	228.7
11	544.0	226.8
12	547.4	223.9
13	549.2	222.4
14	551.6	206.3
15	558.4	178.6
16	560.4	188.4
17	566.4	168.0
18	572.6	144.4
19	575.8	134.1
20	576.8	131.3
21	582.0	118.1
22	585.6	102.1
23	593.6	76.85
24	597.6	79.21
25	603.2	71.61
26	605.4	67.31
27	610.0	57.67
28	612.6	48.40
29	620.2	45.78
30	626.8	38.90
31	629.2	38.57
32	633.6	27.68
33	635.0	29.58
34	638.2	25.06
35	640.8	23.58
36	642.6	19.88
37	645.8	21.34
38	650.8	16.97
39	654.0	19.97
40	657.0	14.41
41	660.4	14.49
42	663.2	13.63
43	664.4	12.36
44	667.6	11.70
45	675.6	10.78
46	679.2	6.987
47	683.8	6.810
48	686.2	4.461
49	691.0	4.799
50	695.0	7.412
51	698.6	6.529
52	702.4	7.454
53	706.6	4.635
54	708.2	6.501
55	714.6	4.205
56	717.6	5.309
57	721.4	4.029
58	726.2	5.339
59	730.4	6.254
60	737.2	3.582
61	742.8	2.362
62	749.6	4.953
63	755.2	4.814
64	757.2	5.219
65	759.4	2.806
66	761.8	3.343
67	765.2	4.411
68	772.4	4.122
69	775.6	3.055
70	777.8	4.458

Data Points
nm	Data
480.0	31.00
481.0	35.13
482.0	36.62
483.0	36.79
484.0	35.54
485.0	38.38
486.0	45.16
487.0	50.50
488.0	54.99
489.0	53.74
490.0	50.54
491.0	55.15
492.0	73.36
493.0	71.10
494.0	85.62
495.0	91.29
496.0	103.9
497.0	99.66
498.0	122.1
499.0	141.7
500.0	161.0
501.0	167.6
502.0	178.9
503.0	183.3
504.0	200.9
505.0	203.2
506.0	235.0
507.0	227.6
508.0	240.9
509.0	247.6
510.0	281.8
511.0	247.2
512.0	259.4
513.0	265.4
514.0	269.5
515.0	281.6
516.0	292.1
517.0	280.5
518.0	296.1
519.0	305.9
520.0	292.8
521.0	288.9
522.0	294.0
523.0	289.6
524.0	294.3
525.0	280.5
526.0	280.1
527.0	260.2
528.0	270.7
529.0	275.9
530.0	262.0
531.0	271.6
532.0	252.1
533.0	259.5
534.0	260.8
535.0	259.7
536.0	255.5
537.0	251.1
538.0	250.5
539.0	236.8
540.0	238.8
541.0	230.0
542.0	252.4
543.0	235.6
544.0	226.8
545.0	252.0
546.0	237.6
547.0	227.0
548.0	230.8
549.0	227.9
550.0	236.3
551.0	224.1
552.0	217.0
553.0	224.4
554.0	224.8
555.0	215.9
556.0	216.1
557.0	206.9
558.0	193.1
559.0	190.1
560.0	201.1
561.0	200.2
562.0	201.9
563.0	190.0
564.0	196.6
565.0	174.9
566.0	175.9
567.0	171.9
568.0	175.9
569.0	158.4
570.0	156.3
571.0	155.5
572.0	155.9
573.0	154.0
574.0	153.8
575.0	134.5
576.0	140.5
577.0	133.6
578.0	136.2
579.0	146.8
580.0	122.4
581.0	125.2
582.0	118.1
583.0	125.9
584.0	120.7
585.0	102.8
586.0	110.5
587.0	111.9
588.0	112.3
589.0	102.6
590.0	98.54
591.0	88.99
592.0	92.53
593.0	82.26
594.0	96.56
595.0	93.31
596.0	87.78
597.0	83.69
598.0	79.31
599.0	87.85
600.0	82.34
601.0	87.83
602.0	77.13
603.0	73.10
604.0	78.20
605.0	69.01
606.0	70.83
607.0	72.48
608.0	63.90
609.0	66.75
610.0	57.67
611.0	56.59
612.0	50.31
613.0	50.38
614.0	59.13
615.0	56.75
616.0	55.73
617.0	56.26
618.0	51.15
619.0	46.35
620.0	47.23
621.0	48.01
622.0	51.68
623.0	52.65
624.0	47.78
625.0	44.95
626.0	44.82
627.0	40.82
628.0	45.67
629.0	43.30
630.0	39.67
631.0	41.11
632.0	36.80
633.0	36.70
634.0	32.15
635.0	29.58
636.0	32.43
637.0	32.76
638.0	26.56
639.0	27.93
640.0	29.14
641.0	24.18
642.0	26.78
643.0	21.84
644.0	22.83
645.0	24.28
646.0	22.77
647.0	26.06
648.0	23.28
649.0	23.21
650.0	23.48
651.0	19.06
652.0	22.21
653.0	25.48
654.0	19.97
655.0	23.11
656.0	18.26
657.0	14.41
658.0	15.84
659.0	20.46
660.0	19.09
661.0	15.60
662.0	17.00
663.0	14.01
664.0	15.35
665.0	14.27
666.0	14.23
667.0	16.38
668.0	13.48
669.0	12.99
670.0	16.59
671.0	18.46
672.0	14.67
673.0	15.12
674.0	12.82
675.0	11.92
676.0	12.26
677.0	13.64
678.0	9.980
679.0	7.987
680.0	8.472
681.0	11.50
682.0	12.25
683.0	9.783
684.0	8.526
685.0	10.51
686.0	6.553
687.0	6.600
688.0	9.948
689.0	14.22
690.0	8.173
691.0	4.799
692.0	11.18
693.0	8.693
694.0	10.72
695.0	7.412
696.0	9.266
697.0	11.69
698.0	10.00
699.0	8.760
700.0	10.13
701.0	11.07
702.0	11.08
703.0	9.220
704.0	10.13
705.0	7.650
706.0	7.946
707.0	8.291
708.0	7.132
709.0	7.485
710.0	9.006
711.0	11.38
712.0	9.841
713.0	11.60
714.0	6.830
715.0	6.105
716.0	6.912
717.0	7.700
718.0	6.139
719.0	6.597
720.0	8.087
721.0	4.856
722.0	4.534
723.0	6.050
724.0	7.868
725.0	8.140
726.0	6.457
727.0	10.17
728.0	10.47
729.0	10.87
730.0	6.911
731.0	6.604
732.0	6.080
733.0	8.519
734.0	8.484
735.0	9.468
736.0	7.132
737.0	4.683
738.0	4.990
739.0	8.682
740.0	8.104
741.0	6.257
742.0	2.859
743.0	4.018
744.0	5.799
745.0	7.318
746.0	8.080
747.0	8.757
748.0	8.283
749.0	6.375
750.0	7.209
751.0	6.800
752.0	7.655
753.0	8.362
754.0	7.329
755.0	5.936
756.0	11.30
757.0	7.546
758.0	8.189
759.0	3.548
760.0	5.792
761.0	6.275
762.0	4.099
763.0	6.246
764.0	8.557
765.0	5.514
766.0	7.490
767.0	6.855
768.0	7.383
769.0	9.722
770.0	5.572
771.0	4.118
772.0	4.484
773.0	5.945
774.0	12.12
775.0	6.799
776.0	7.664
777.0	7.188
778.0	5.348
779.0	6.356
780.0	6.561

Sample:	'wa-20(EM)
File name:	30.FDS
Run Date:	'16:28:24, 07/11/2024
Operator:	WXH
Comment:	'

Instrument
Model:	F-4600 FL Spectrophotometer
Serial Number:	3080-002
ROM Version:	5J24000 02

Instrument Parameters
Measurement type:	Wavelength scan
Scan mode:	Emission
Data mode:	Fluorescence
EX WL:	460.0 nm
EM  Start WL:	480.0 nm
EM  End WL:	780.0 nm
Scan speed:	1200 nm/min
Delay:	0.0 s
EX Slit:	2.5 nm
EM Slit:	2.5 nm
PMT Voltage:	600 V
Response:	Auto 
Corrected spectra:	Off
Shutter control:	On

Peak integration
Integration method:	Rectangular
Sensitivity:	1
Threshold:	1.000

Peaks
No.	Valley(nm)	Valley(Data)
1	483.4	27.71
2	484.8	33.00
3	495.2	84.07
4	498.0	110.5
5	501.4	158.1
6	506.0	207.7
7	514.4	262.2
8	516.6	274.8
9	521.0	278.6
10	524.0	276.3
11	526.0	262.4
12	528.6	261.7
13	532.0	254.4
14	535.6	228.1
15	537.8	238.3
16	542.0	219.9
17	545.6	222.9
18	550.8	195.7
19	553.6	202.2
20	557.0	189.8
21	561.0	187.1
22	562.8	180.9
23	567.2	166.6
24	571.2	138.2
25	574.8	130.8
26	578.0	122.0
27	580.0	110.4
28	588.0	101.5
29	593.8	79.54
30	598.8	78.37
31	604.4	65.16
32	609.0	56.89
33	615.0	48.79
34	618.0	46.67
35	619.4	45.35
36	624.8	38.96
37	631.0	29.72
38	634.8	28.19
39	638.8	26.96
40	644.2	18.90
41	647.8	16.97
42	652.4	16.79
43	657.4	14.42
44	661.0	13.78
45	665.4	10.33
46	667.8	15.71
47	670.8	8.020
48	674.0	9.646
49	676.6	8.001
50	680.8	9.591
51	683.0	9.181
52	684.8	6.914
53	687.2	7.307
54	689.8	7.222
55	692.0	9.809
56	695.4	6.269
57	697.0	6.377
58	701.4	5.436
59	705.6	5.187
60	710.6	5.493
61	714.0	5.243
62	718.4	6.729
63	721.8	6.170
64	724.4	3.760
65	727.6	6.496
66	734.0	3.997
67	737.8	5.706
68	741.2	4.569
69	744.2	2.075
70	747.6	4.605
71	750.4	4.074
72	756.6	1.732
73	759.6	4.879
74	763.4	3.456
75	767.8	3.496
76	770.2	1.259
77	774.2	4.631
78	778.4	2.800

Data Points
nm	Data
480.0	36.33
481.0	27.81
482.0	36.72
483.0	28.87
484.0	41.37
485.0	34.52
486.0	38.96
487.0	38.26
488.0	44.33
489.0	46.19
490.0	48.51
491.0	64.85
492.0	67.51
493.0	71.19
494.0	91.21
495.0	86.00
496.0	108.0
497.0	132.7
498.0	110.5
499.0	126.3
500.0	164.8
501.0	172.5
502.0	182.3
503.0	192.7
504.0	209.6
505.0	212.9
506.0	207.7
507.0	227.7
508.0	244.6
509.0	240.7
510.0	245.8
511.0	263.8
512.0	272.9
513.0	286.9
514.0	270.5
515.0	279.0
516.0	278.5
517.0	289.3
518.0	303.8
519.0	285.9
520.0	298.1
521.0	278.6
522.0	287.6
523.0	288.6
524.0	276.3
525.0	290.7
526.0	262.4
527.0	280.4
528.0	269.8
529.0	272.1
530.0	274.1
531.0	262.5
532.0	254.4
533.0	270.4
534.0	261.6
535.0	256.8
536.0	238.7
537.0	251.5
538.0	243.7
539.0	245.8
540.0	241.2
541.0	241.9
542.0	219.9
543.0	245.0
544.0	249.2
545.0	237.5
546.0	233.4
547.0	233.4
548.0	247.7
549.0	226.9
550.0	209.0
551.0	196.1
552.0	203.7
553.0	202.8
554.0	210.0
555.0	216.1
556.0	207.4
557.0	189.8
558.0	197.6
559.0	222.2
560.0	199.2
561.0	187.1
562.0	207.3
563.0	188.2
564.0	193.9
565.0	197.6
566.0	179.5
567.0	176.7
568.0	174.3
569.0	168.5
570.0	170.0
571.0	148.7
572.0	146.6
573.0	145.5
574.0	143.8
575.0	140.9
576.0	144.0
577.0	145.9
578.0	122.0
579.0	133.4
580.0	110.4
581.0	130.0
582.0	123.8
583.0	118.1
584.0	118.9
585.0	114.2
586.0	106.0
587.0	102.6
588.0	101.5
589.0	109.5
590.0	102.9
591.0	98.60
592.0	92.92
593.0	95.63
594.0	84.04
595.0	85.32
596.0	89.97
597.0	85.76
598.0	82.00
599.0	80.29
600.0	86.58
601.0	88.22
602.0	78.55
603.0	70.83
604.0	68.65
605.0	76.44
606.0	84.35
607.0	69.36
608.0	58.43
609.0	56.89
610.0	61.38
611.0	61.41
612.0	61.09
613.0	59.92
614.0	60.51
615.0	48.79
616.0	55.86
617.0	55.89
618.0	46.67
619.0	48.02
620.0	50.82
621.0	50.50
622.0	49.88
623.0	46.58
624.0	49.32
625.0	42.82
626.0	45.32
627.0	47.02
628.0	37.31
629.0	38.70
630.0	32.02
631.0	29.72
632.0	35.72
633.0	40.25
634.0	35.03
635.0	28.51
636.0	30.45
637.0	31.66
638.0	26.37
639.0	27.20
640.0	32.55
641.0	34.98
642.0	28.97
643.0	24.41
644.0	23.17
645.0	27.93
646.0	22.15
647.0	22.62
648.0	18.23
649.0	17.56
650.0	21.60
651.0	20.68
652.0	18.43
653.0	21.29
654.0	23.55
655.0	18.79
656.0	20.59
657.0	16.18
658.0	17.15
659.0	19.85
660.0	16.88
661.0	13.78
662.0	16.94
663.0	16.80
664.0	12.67
665.0	11.21
666.0	17.33
667.0	19.39
668.0	16.23
669.0	18.50
670.0	13.09
671.0	9.836
672.0	12.98
673.0	18.72
674.0	9.646
675.0	13.25
676.0	10.85
677.0	10.74
678.0	18.72
679.0	16.88
680.0	14.38
681.0	10.53
682.0	12.15
683.0	9.181
684.0	11.60
685.0	9.091
686.0	11.77
687.0	8.498
688.0	9.321
689.0	8.886
690.0	7.570
691.0	11.41
692.0	9.809
693.0	10.42
694.0	9.866
695.0	8.143
696.0	8.264
697.0	6.377
698.0	9.234
699.0	12.21
700.0	8.485
701.0	6.974
702.0	7.870
703.0	8.333
704.0	11.01
705.0	6.339
706.0	8.231
707.0	9.650
708.0	8.568
709.0	10.80
710.0	8.430
711.0	7.189
712.0	9.738
713.0	7.992
714.0	5.243
715.0	4.566
716.0	6.108
717.0	9.023
718.0	8.459
719.0	9.403
720.0	10.37
721.0	5.243
722.0	6.756
723.0	9.140
724.0	5.489
725.0	7.106
726.0	9.567
727.0	7.159
728.0	9.406
729.0	11.50
730.0	8.807
731.0	6.576
732.0	7.025
733.0	6.628
734.0	3.997
735.0	5.311
736.0	7.714
737.0	8.649
738.0	6.051
739.0	9.400
740.0	5.976
741.0	4.818
742.0	5.102
743.0	7.981
744.0	2.911
745.0	2.870
746.0	7.807
747.0	8.223
748.0	6.279
749.0	6.638
750.0	4.952
751.0	5.638
752.0	8.968
753.0	8.355
754.0	5.301
755.0	3.013
756.0	4.088
757.0	4.381
758.0	5.061
759.0	6.840
760.0	6.021
761.0	7.274
762.0	9.279
763.0	3.578
764.0	4.980
765.0	6.060
766.0	6.381
767.0	5.023
768.0	7.878
769.0	5.602
770.0	1.818
771.0	5.062
772.0	8.397
773.0	5.284
774.0	5.116
775.0	6.944
776.0	8.507
777.0	5.836
778.0	3.131
779.0	7.522
780.0	8.460

