Sample:	'wa-1(EM)
File name:	40.FDS
Run Date:	'15:50:31, 07/11/2024
Operator:	WXH
Comment:	'

Instrument
Model:	F-4600 FL Spectrophotometer
Serial Number:	3080-002
ROM Version:	5J24000 02

Instrument Parameters
Measurement type:	Wavelength scan
Scan mode:	Emission
Data mode:	Fluorescence
EX WL:	460.0 nm
EM  Start WL:	480.0 nm
EM  End WL:	780.0 nm
Scan speed:	1200 nm/min
Delay:	0.0 s
EX Slit:	2.5 nm
EM Slit:	2.5 nm
PMT Voltage:	600 V
Response:	Auto 
Corrected spectra:	Off
Shutter control:	On

Peak integration
Integration method:	Rectangular
Sensitivity:	1
Threshold:	1.000

Peaks
No.	Valley(nm)	Valley(Data)
1	485.0	68.80
2	488.6	86.65
3	492.6	111.7
4	512.8	346.6
5	516.8	375.0
6	519.4	360.0
7	523.2	364.3
8	529.2	342.8
9	533.0	324.9
10	536.2	314.8
11	538.4	316.8
12	540.4	298.7
13	541.6	304.0
14	544.0	305.0
15	549.2	279.1
16	550.8	281.8
17	552.8	267.6
18	554.8	280.6
19	558.8	249.7
20	564.6	222.2
21	569.2	209.3
22	574.8	183.9
23	580.6	149.3
24	582.8	145.8
25	586.4	132.9
26	589.6	122.4
27	592.4	114.5
28	594.2	108.4
29	598.4	105.3
30	604.0	86.66
31	610.6	73.12
32	612.6	75.37
33	618.6	58.34
34	622.6	50.43
35	627.6	42.99
36	630.8	36.58
37	636.2	29.41
38	641.0	29.01
39	642.8	26.31
40	647.0	23.18
41	649.8	21.74
42	652.8	17.89
43	657.8	17.31
44	663.6	13.74
45	666.4	10.41
46	672.6	9.372
47	676.8	9.063
48	678.8	11.45
49	684.6	5.840
50	688.6	6.874
51	693.4	5.819
52	697.0	4.694
53	699.4	4.881
54	703.2	5.288
55	706.0	2.524
56	709.0	3.311
57	713.4	3.838
58	717.6	1.822
59	722.2	3.701
60	724.4	3.700
61	727.2	1.944
62	734.0	2.597
63	735.4	1.660
64	740.0	1.267
65	743.4	3.568
66	748.6	1.327
67	753.6	1.250
68	756.4	1.803
69	759.0	1.729
70	763.4	1.443
71	765.2	2.057
72	766.8	1.391
73	768.6	1.096
74	772.8	1.000
75	776.4	1.243
76	780.0	2.937

Data Points
nm	Data
480.0	88.76
481.0	75.15
482.0	71.50
483.0	70.59
484.0	75.55
485.0	68.80
486.0	80.23
487.0	94.23
488.0	99.80
489.0	89.08
490.0	101.0
491.0	114.1
492.0	118.9
493.0	123.2
494.0	127.8
495.0	145.5
496.0	150.9
497.0	155.3
498.0	184.4
499.0	202.4
500.0	205.6
501.0	222.3
502.0	228.5
503.0	254.7
504.0	274.0
505.0	286.0
506.0	307.2
507.0	325.1
508.0	331.9
509.0	331.1
510.0	335.7
511.0	355.8
512.0	373.7
513.0	364.4
514.0	382.4
515.0	366.9
516.0	383.4
517.0	375.7
518.0	403.3
519.0	390.2
520.0	391.2
521.0	376.4
522.0	379.7
523.0	378.8
524.0	372.0
525.0	385.5
526.0	368.7
527.0	382.4
528.0	359.1
529.0	348.3
530.0	345.0
531.0	348.3
532.0	355.0
533.0	324.9
534.0	342.4
535.0	348.1
536.0	318.2
537.0	336.3
538.0	325.9
539.0	331.3
540.0	305.6
541.0	333.0
542.0	314.1
543.0	315.7
544.0	305.0
545.0	309.4
546.0	314.9
547.0	299.5
548.0	314.2
549.0	279.3
550.0	309.0
551.0	287.3
552.0	291.9
553.0	275.1
554.0	294.7
555.0	288.4
556.0	288.0
557.0	275.6
558.0	255.6
559.0	260.1
560.0	260.7
561.0	241.5
562.0	237.0
563.0	234.5
564.0	231.6
565.0	228.1
566.0	236.9
567.0	236.2
568.0	237.6
569.0	212.9
570.0	217.2
571.0	210.2
572.0	204.4
573.0	201.9
574.0	193.0
575.0	184.4
576.0	200.2
577.0	186.5
578.0	187.0
579.0	175.5
580.0	156.8
581.0	161.6
582.0	159.6
583.0	149.2
584.0	149.2
585.0	141.7
586.0	145.2
587.0	135.9
588.0	144.6
589.0	132.3
590.0	131.0
591.0	122.5
592.0	121.1
593.0	130.3
594.0	109.2
595.0	114.3
596.0	117.0
597.0	110.2
598.0	111.8
599.0	108.5
600.0	107.0
601.0	98.66
602.0	97.14
603.0	90.03
604.0	86.66
605.0	95.83
606.0	95.32
607.0	88.92
608.0	84.90
609.0	82.01
610.0	81.65
611.0	80.82
612.0	80.32
613.0	78.59
614.0	79.34
615.0	77.21
616.0	73.99
617.0	68.23
618.0	69.77
619.0	64.70
620.0	70.68
621.0	52.34
622.0	53.18
623.0	51.39
624.0	53.13
625.0	59.65
626.0	53.12
627.0	47.93
628.0	47.56
629.0	50.72
630.0	45.71
631.0	37.08
632.0	44.95
633.0	46.63
634.0	35.41
635.0	30.25
636.0	32.53
637.0	34.51
638.0	31.66
639.0	33.28
640.0	36.25
641.0	29.01
642.0	33.28
643.0	28.62
644.0	32.76
645.0	26.09
646.0	26.35
647.0	23.18
648.0	25.95
649.0	29.24
650.0	25.38
651.0	25.70
652.0	20.00
653.0	18.34
654.0	19.63
655.0	20.86
656.0	27.02
657.0	20.11
658.0	18.98
659.0	23.81
660.0	18.27
661.0	21.10
662.0	18.93
663.0	16.06
664.0	15.34
665.0	17.23
666.0	12.25
667.0	12.45
668.0	18.13
669.0	14.37
670.0	14.77
671.0	12.30
672.0	14.55
673.0	12.55
674.0	12.61
675.0	11.93
676.0	14.53
677.0	9.837
678.0	14.27
679.0	13.32
680.0	14.36
681.0	14.73
682.0	8.858
683.0	6.550
684.0	6.615
685.0	8.238
686.0	9.695
687.0	12.55
688.0	7.872
689.0	8.802
690.0	10.30
691.0	11.69
692.0	11.02
693.0	6.700
694.0	8.544
695.0	7.829
696.0	10.39
697.0	4.694
698.0	7.045
699.0	5.136
700.0	6.776
701.0	7.901
702.0	5.020
703.0	6.127
704.0	8.355
705.0	5.962
706.0	2.524
707.0	9.348
708.0	5.730
709.0	3.311
710.0	7.712
711.0	10.43
712.0	6.610
713.0	6.410
714.0	5.042
715.0	5.491
716.0	5.339
717.0	3.917
718.0	5.406
719.0	8.315
720.0	5.808
721.0	4.839
722.0	4.494
723.0	5.896
724.0	5.845
725.0	7.850
726.0	5.086
727.0	2.879
728.0	3.649
729.0	2.687
730.0	5.579
731.0	6.456
732.0	5.547
733.0	4.590
734.0	2.597
735.0	4.081
736.0	2.326
737.0	3.704
738.0	4.825
739.0	3.543
740.0	1.267
741.0	2.092
742.0	3.974
743.0	5.141
744.0	6.830
745.0	5.107
746.0	9.042
747.0	4.537
748.0	3.793
749.0	1.602
750.0	4.074
751.0	4.288
752.0	2.975
753.0	2.575
754.0	2.908
755.0	3.680
756.0	2.990
757.0	3.278
758.0	3.585
759.0	1.729
760.0	5.257
761.0	3.932
762.0	3.431
763.0	3.243
764.0	2.300
765.0	3.050
766.0	4.999
767.0	2.531
768.0	2.206
769.0	3.568
770.0	2.447
771.0	3.693
772.0	3.774
773.0	1.905
774.0	4.940
775.0	4.455
776.0	2.045
777.0	4.410
778.0	5.009
779.0	4.513
780.0	2.937

Sample:	'wa-2(EM)
File name:	40.FDS
Run Date:	'15:51:01, 07/11/2024
Operator:	WXH
Comment:	'

Instrument
Model:	F-4600 FL Spectrophotometer
Serial Number:	3080-002
ROM Version:	5J24000 02

Instrument Parameters
Measurement type:	Wavelength scan
Scan mode:	Emission
Data mode:	Fluorescence
EX WL:	460.0 nm
EM  Start WL:	480.0 nm
EM  End WL:	780.0 nm
Scan speed:	1200 nm/min
Delay:	0.0 s
EX Slit:	2.5 nm
EM Slit:	2.5 nm
PMT Voltage:	600 V
Response:	Auto 
Corrected spectra:	Off
Shutter control:	On

Peak integration
Integration method:	Rectangular
Sensitivity:	1
Threshold:	1.000

Peaks
No.	Valley(nm)	Valley(Data)
1	481.2	65.65
2	484.6	66.57
3	503.8	248.2
4	514.0	355.1
5	516.6	365.9
6	519.2	367.5
7	523.4	361.5
8	524.4	351.5
9	530.2	355.5
10	532.8	324.9
11	535.4	319.4
12	538.0	332.6
13	539.4	310.8
14	543.0	284.3
15	548.2	285.6
16	549.6	283.6
17	552.4	272.4
18	554.0	270.2
19	556.0	259.7
20	557.8	245.4
21	564.2	235.4
22	568.4	199.8
23	572.4	186.9
24	582.6	136.4
25	592.2	112.6
26	598.0	90.46
27	602.6	95.89
28	604.2	88.40
29	610.2	73.14
30	612.8	65.47
31	619.6	52.69
32	621.6	51.61
33	627.0	41.76
34	631.6	38.30
35	634.0	40.58
36	636.6	32.95
37	640.6	30.73
38	642.2	26.32
39	645.6	22.30
40	650.6	20.68
41	653.4	18.91
42	655.4	17.75
43	660.8	15.66
44	664.8	12.39
45	667.8	12.21
46	670.0	10.40
47	673.8	9.473
48	680.0	8.907
49	682.6	8.661
50	684.2	8.871
51	686.6	7.395
52	691.2	5.219
53	694.2	3.720
54	697.4	3.967
55	703.0	4.196
56	704.4	5.236
57	706.6	5.012
58	709.6	4.202
59	712.8	3.561
60	716.4	2.342
61	720.8	2.819
62	723.6	3.109
63	726.4	3.744
64	731.2	1.929
65	733.6	1.738
66	738.8	1.426
67	743.2	1.329
68	744.6	2.821
69	748.2	2.490
70	750.2	2.395
71	755.0	1.275
72	757.2	1.195
73	760.4	1.800
74	764.6	2.287
75	767.6	2.123
76	770.2	2.033
77	773.4	1.731
78	774.8	1.203
79	780.0	2.537

Data Points
nm	Data
480.0	69.59
481.0	68.31
482.0	69.99
483.0	78.33
484.0	70.71
485.0	69.87
486.0	74.28
487.0	72.97
488.0	90.74
489.0	88.83
490.0	94.10
491.0	112.4
492.0	108.9
493.0	123.8
494.0	123.6
495.0	138.5
496.0	164.0
497.0	161.0
498.0	177.5
499.0	178.6
500.0	207.7
501.0	227.4
502.0	239.1
503.0	254.2
504.0	252.2
505.0	281.5
506.0	307.2
507.0	291.2
508.0	312.5
509.0	320.9
510.0	338.2
511.0	348.7
512.0	347.8
513.0	378.0
514.0	355.1
515.0	377.3
516.0	390.9
517.0	376.6
518.0	377.9
519.0	381.5
520.0	391.7
521.0	388.9
522.0	377.4
523.0	371.8
524.0	383.8
525.0	361.5
526.0	373.2
527.0	359.0
528.0	366.8
529.0	356.1
530.0	365.0
531.0	365.3
532.0	354.8
533.0	333.8
534.0	339.5
535.0	337.2
536.0	328.6
537.0	334.9
538.0	332.6
539.0	317.4
540.0	327.6
541.0	334.5
542.0	306.3
543.0	284.3
544.0	310.9
545.0	305.2
546.0	309.5
547.0	299.4
548.0	289.0
549.0	302.3
550.0	297.9
551.0	293.6
552.0	285.9
553.0	304.3
554.0	270.2
555.0	283.7
556.0	259.7
557.0	292.9
558.0	260.5
559.0	262.2
560.0	264.0
561.0	257.6
562.0	233.6
563.0	251.5
564.0	240.9
565.0	250.3
566.0	247.9
567.0	214.3
568.0	213.6
569.0	222.5
570.0	223.1
571.0	218.5
572.0	195.5
573.0	192.9
574.0	199.8
575.0	194.1
576.0	190.6
577.0	177.1
578.0	183.4
579.0	163.2
580.0	158.5
581.0	155.6
582.0	146.3
583.0	150.1
584.0	157.7
585.0	154.2
586.0	144.3
587.0	142.1
588.0	131.4
589.0	131.2
590.0	131.5
591.0	127.9
592.0	118.3
593.0	119.8
594.0	121.0
595.0	122.6
596.0	117.7
597.0	109.6
598.0	90.46
599.0	107.0
600.0	105.8
601.0	99.97
602.0	98.08
603.0	103.0
604.0	93.34
605.0	97.69
606.0	97.34
607.0	84.79
608.0	85.17
609.0	87.63
610.0	76.89
611.0	85.65
612.0	84.02
613.0	71.74
614.0	80.15
615.0	76.22
616.0	73.15
617.0	71.61
618.0	72.15
619.0	62.82
620.0	61.13
621.0	60.67
622.0	58.01
623.0	58.18
624.0	55.28
625.0	52.83
626.0	47.46
627.0	41.76
628.0	48.72
629.0	46.18
630.0	50.85
631.0	41.62
632.0	46.72
633.0	41.11
634.0	40.58
635.0	44.35
636.0	33.56
637.0	35.33
638.0	42.67
639.0	37.28
640.0	32.19
641.0	32.29
642.0	28.77
643.0	30.25
644.0	35.33
645.0	27.18
646.0	24.20
647.0	29.14
648.0	23.11
649.0	24.24
650.0	24.87
651.0	25.65
652.0	23.60
653.0	19.83
654.0	18.92
655.0	23.30
656.0	20.27
657.0	24.05
658.0	21.46
659.0	19.63
660.0	18.68
661.0	17.11
662.0	16.86
663.0	19.78
664.0	15.86
665.0	15.74
666.0	20.61
667.0	14.05
668.0	13.24
669.0	10.83
670.0	10.40
671.0	11.79
672.0	19.33
673.0	10.69
674.0	11.65
675.0	10.77
676.0	12.91
677.0	11.84
678.0	11.85
679.0	11.60
680.0	8.907
681.0	14.57
682.0	11.18
683.0	10.99
684.0	9.771
685.0	10.34
686.0	8.647
687.0	10.48
688.0	9.320
689.0	10.06
690.0	8.907
691.0	6.126
692.0	9.222
693.0	9.397
694.0	5.470
695.0	10.11
696.0	8.562
697.0	4.924
698.0	6.935
699.0	6.724
700.0	10.27
701.0	9.061
702.0	8.695
703.0	4.196
704.0	8.902
705.0	6.721
706.0	7.792
707.0	7.571
708.0	9.139
709.0	5.279
710.0	5.933
711.0	6.994
712.0	5.332
713.0	4.234
714.0	7.869
715.0	8.288
716.0	5.036
717.0	3.909
718.0	6.683
719.0	6.152
720.0	6.977
721.0	2.822
722.0	5.581
723.0	3.698
724.0	4.747
725.0	5.537
726.0	5.548
727.0	7.941
728.0	6.666
729.0	5.323
730.0	3.230
731.0	2.309
732.0	7.013
733.0	4.775
734.0	2.830
735.0	2.472
736.0	3.697
737.0	4.724
738.0	4.475
739.0	2.041
740.0	4.828
741.0	6.753
742.0	5.086
743.0	2.164
744.0	5.433
745.0	3.157
746.0	4.768
747.0	4.556
748.0	3.451
749.0	6.248
750.0	3.222
751.0	3.703
752.0	2.586
753.0	3.424
754.0	2.468
755.0	1.275
756.0	1.662
757.0	1.701
758.0	3.175
759.0	3.132
760.0	2.452
761.0	3.413
762.0	6.005
763.0	4.618
764.0	2.444
765.0	4.601
766.0	6.388
767.0	3.688
768.0	3.359
769.0	5.304
770.0	2.372
771.0	3.635
772.0	4.140
773.0	2.618
774.0	5.215
775.0	2.547
776.0	3.420
777.0	4.885
778.0	7.644
779.0	2.086
780.0	2.537

Sample:	'wa-3(EM)
File name:	40.FDS
Run Date:	'15:51:31, 07/11/2024
Operator:	WXH
Comment:	'

Instrument
Model:	F-4600 FL Spectrophotometer
Serial Number:	3080-002
ROM Version:	5J24000 02

Instrument Parameters
Measurement type:	Wavelength scan
Scan mode:	Emission
Data mode:	Fluorescence
EX WL:	460.0 nm
EM  Start WL:	480.0 nm
EM  End WL:	780.0 nm
Scan speed:	1200 nm/min
Delay:	0.0 s
EX Slit:	2.5 nm
EM Slit:	2.5 nm
PMT Voltage:	600 V
Response:	Auto 
Corrected spectra:	Off
Shutter control:	On

Peak integration
Integration method:	Rectangular
Sensitivity:	1
Threshold:	1.000

Peaks
No.	Valley(nm)	Valley(Data)
1	484.6	64.96
2	505.2	258.1
3	511.2	340.5
4	515.8	364.1
5	517.0	353.9
6	520.6	353.7
7	524.6	351.0
8	527.0	336.5
9	528.4	352.0
10	536.4	318.4
11	538.8	303.8
12	542.0	282.1
13	547.6	295.9
14	560.8	232.9
15	566.8	212.1
16	574.6	187.2
17	580.8	163.5
18	583.8	151.5
19	586.2	137.1
20	589.8	121.2
21	595.8	109.1
22	603.4	85.94
23	607.0	74.33
24	611.8	71.77
25	615.0	59.24
26	619.6	59.08
27	621.4	56.60
28	623.6	47.33
29	626.2	46.09
30	630.6	42.25
31	633.2	37.13
32	636.8	30.27
33	640.4	29.56
34	643.2	27.90
35	646.4	23.40
36	648.0	22.87
37	653.8	19.64
38	659.8	17.82
39	664.2	11.78
40	668.6	8.846
41	672.0	10.97
42	675.8	9.122
43	680.2	9.653
44	685.2	4.713
45	688.4	4.601
46	690.8	4.700
47	693.4	5.732
48	697.4	5.791
49	701.4	5.810
50	704.6	4.424
51	707.0	5.381
52	711.6	3.047
53	715.2	2.935
54	718.4	2.463
55	722.8	1.710
56	724.6	3.435
57	728.8	3.440
58	731.4	3.745
59	737.2	3.238
60	741.4	1.499
61	747.4	2.384
62	750.6	3.066
63	753.6	2.935
64	757.2	2.081
65	763.8	1.296
66	766.8	3.502
67	770.2	1.777
68	771.8	1.600
69	773.2	2.128
70	777.0	2.635
71	779.0	2.183

Data Points
nm	Data
480.0	92.44
481.0	70.34
482.0	70.90
483.0	79.33
484.0	69.95
485.0	70.66
486.0	83.48
487.0	73.93
488.0	87.65
489.0	87.91
490.0	94.06
491.0	98.58
492.0	117.2
493.0	120.5
494.0	122.8
495.0	133.9
496.0	149.8
497.0	156.3
498.0	169.6
499.0	194.0
500.0	213.0
501.0	222.7
502.0	224.9
503.0	238.8
504.0	269.2
505.0	266.9
506.0	287.9
507.0	310.4
508.0	299.7
509.0	315.9
510.0	343.6
511.0	371.0
512.0	352.8
513.0	351.6
514.0	371.0
515.0	370.9
516.0	380.9
517.0	353.9
518.0	385.3
519.0	388.4
520.0	378.1
521.0	370.0
522.0	382.3
523.0	387.6
524.0	375.4
525.0	368.3
526.0	373.1
527.0	336.5
528.0	362.1
529.0	357.4
530.0	357.7
531.0	352.0
532.0	354.5
533.0	320.6
534.0	345.3
535.0	332.7
536.0	321.4
537.0	325.5
538.0	341.7
539.0	311.3
540.0	322.5
541.0	299.4
542.0	282.1
543.0	289.3
544.0	314.8
545.0	305.2
546.0	305.6
547.0	303.5
548.0	314.4
549.0	286.6
550.0	299.5
551.0	296.1
552.0	292.4
553.0	286.5
554.0	288.3
555.0	282.4
556.0	276.8
557.0	264.7
558.0	265.7
559.0	266.5
560.0	254.6
561.0	249.9
562.0	253.7
563.0	245.5
564.0	229.3
565.0	223.7
566.0	221.9
567.0	222.1
568.0	229.5
569.0	212.9
570.0	221.0
571.0	211.5
572.0	205.6
573.0	202.0
574.0	192.2
575.0	194.6
576.0	198.6
577.0	180.1
578.0	174.5
579.0	175.3
580.0	167.2
581.0	176.8
582.0	167.4
583.0	165.2
584.0	154.0
585.0	158.3
586.0	137.7
587.0	148.9
588.0	124.3
589.0	124.1
590.0	129.3
591.0	130.8
592.0	127.6
593.0	118.5
594.0	111.7
595.0	109.7
596.0	111.8
597.0	105.6
598.0	108.4
599.0	103.6
600.0	93.53
601.0	94.27
602.0	98.68
603.0	88.56
604.0	95.13
605.0	97.11
606.0	83.71
607.0	74.33
608.0	86.94
609.0	95.07
610.0	81.32
611.0	74.77
612.0	72.08
613.0	80.07
614.0	74.64
615.0	59.24
616.0	65.07
617.0	75.85
618.0	71.69
619.0	60.29
620.0	62.81
621.0	58.90
622.0	69.45
623.0	57.08
624.0	49.00
625.0	55.72
626.0	48.19
627.0	52.77
628.0	50.67
629.0	48.24
630.0	45.26
631.0	46.37
632.0	42.52
633.0	39.15
634.0	38.32
635.0	36.25
636.0	34.21
637.0	30.43
638.0	38.71
639.0	31.26
640.0	31.20
641.0	30.68
642.0	31.75
643.0	30.69
644.0	36.39
645.0	35.26
646.0	25.22
647.0	28.58
648.0	22.87
649.0	27.42
650.0	26.52
651.0	28.12
652.0	25.03
653.0	22.64
654.0	23.91
655.0	22.87
656.0	24.45
657.0	21.96
658.0	18.25
659.0	19.35
660.0	21.51
661.0	18.17
662.0	15.59
663.0	15.93
664.0	12.59
665.0	16.09
666.0	19.44
667.0	18.29
668.0	12.96
669.0	10.87
670.0	15.72
671.0	10.92
672.0	10.97
673.0	12.33
674.0	13.01
675.0	15.63
676.0	10.84
677.0	12.29
678.0	11.55
679.0	14.16
680.0	11.21
681.0	10.85
682.0	12.42
683.0	9.701
684.0	7.602
685.0	5.669
686.0	5.708
687.0	5.994
688.0	7.190
689.0	6.104
690.0	9.788
691.0	8.538
692.0	7.121
693.0	5.871
694.0	8.271
695.0	6.998
696.0	9.372
697.0	6.079
698.0	7.315
699.0	9.647
700.0	7.917
701.0	10.64
702.0	7.727
703.0	7.301
704.0	7.092
705.0	4.579
706.0	5.836
707.0	5.381
708.0	6.382
709.0	8.244
710.0	5.665
711.0	4.951
712.0	3.695
713.0	6.900
714.0	5.200
715.0	3.826
716.0	5.754
717.0	6.065
718.0	3.226
719.0	4.585
720.0	4.469
721.0	4.955
722.0	5.201
723.0	2.968
724.0	5.203
725.0	5.341
726.0	9.470
727.0	4.814
728.0	4.366
729.0	4.396
730.0	6.920
731.0	4.210
732.0	4.673
733.0	5.379
734.0	7.280
735.0	9.915
736.0	2.274
737.0	3.644
738.0	6.865
739.0	5.452
740.0	4.241
741.0	3.143
742.0	3.353
743.0	2.838
744.0	5.448
745.0	5.047
746.0	4.340
747.0	3.194
748.0	7.582
749.0	5.417
750.0	3.818
751.0	3.784
752.0	4.056
753.0	5.532
754.0	3.952
755.0	4.468
756.0	3.280
757.0	2.419
758.0	4.972
759.0	4.082
760.0	4.010
761.0	3.354
762.0	1.263
763.0	2.167
764.0	2.664
765.0	3.503
766.0	5.096
767.0	4.108
768.0	4.937
769.0	4.191
770.0	2.629
771.0	3.778
772.0	1.768
773.0	2.639
774.0	3.610
775.0	4.596
776.0	6.496
777.0	2.635
778.0	4.032
779.0	2.183
780.0	3.863

Sample:	'wa-4(EM)
File name:	40.FDS
Run Date:	'15:52:02, 07/11/2024
Operator:	WXH
Comment:	'

Instrument
Model:	F-4600 FL Spectrophotometer
Serial Number:	3080-002
ROM Version:	5J24000 02

Instrument Parameters
Measurement type:	Wavelength scan
Scan mode:	Emission
Data mode:	Fluorescence
EX WL:	460.0 nm
EM  Start WL:	480.0 nm
EM  End WL:	780.0 nm
Scan speed:	1200 nm/min
Delay:	0.0 s
EX Slit:	2.5 nm
EM Slit:	2.5 nm
PMT Voltage:	600 V
Response:	Auto 
Corrected spectra:	Off
Shutter control:	On

Peak integration
Integration method:	Rectangular
Sensitivity:	1
Threshold:	1.000

Peaks
No.	Valley(nm)	Valley(Data)
1	482.8	59.47
2	493.0	109.9
3	511.6	333.3
4	514.4	366.6
5	516.8	356.4
6	519.4	360.0
7	521.4	368.8
8	523.6	367.6
9	525.6	364.0
10	531.0	338.1
11	532.4	337.7
12	536.0	321.7
13	539.6	307.9
14	544.6	286.2
15	547.0	287.8
16	549.2	274.3
17	552.2	286.3
18	555.0	261.3
19	558.2	253.4
20	563.4	222.9
21	570.0	209.1
22	577.2	164.1
23	585.2	133.1
24	590.6	119.7
25	603.0	89.92
26	604.8	83.05
27	610.2	66.21
28	612.4	69.17
29	616.6	62.04
30	619.6	53.96
31	622.0	57.62
32	623.4	49.93
33	629.0	38.99
34	631.2	36.01
35	633.8	30.82
36	639.4	23.51
37	643.0	24.84
38	645.2	24.65
39	648.0	24.45
40	649.8	22.32
41	654.0	19.69
42	658.6	13.39
43	664.4	14.82
44	666.6	11.31
45	669.2	11.04
46	671.2	12.64
47	674.0	9.696
48	676.2	10.97
49	678.8	8.360
50	682.2	8.719
51	685.6	6.035
52	689.6	5.447
53	691.6	7.184
54	696.4	6.545
55	701.0	5.201
56	704.8	5.802
57	707.2	4.555
58	710.4	2.934
59	715.4	4.009
60	717.4	3.885
61	721.6	2.842
62	725.8	4.146
63	731.2	2.433
64	732.6	2.312
65	736.6	2.788
66	739.8	2.687
67	741.6	2.158
68	745.0	3.232
69	747.0	1.462
70	751.4	1.738
71	754.2	2.702
72	756.6	1.835
73	758.6	1.913
74	762.6	1.770
75	765.4	2.144
76	769.2	1.725
77	772.2	1.335
78	774.4	2.609
79	777.2	1.811
80	780.0	2.866

Data Points
nm	Data
480.0	62.55
481.0	79.00
482.0	68.54
483.0	67.29
484.0	63.29
485.0	76.98
486.0	76.98
487.0	81.09
488.0	84.67
489.0	80.70
490.0	95.63
491.0	108.6
492.0	109.9
493.0	109.9
494.0	117.0
495.0	127.1
496.0	150.6
497.0	157.7
498.0	167.8
499.0	185.9
500.0	228.8
501.0	219.4
502.0	239.4
503.0	244.7
504.0	274.6
505.0	282.9
506.0	296.4
507.0	310.6
508.0	321.7
509.0	323.5
510.0	331.1
511.0	344.4
512.0	350.7
513.0	375.1
514.0	389.2
515.0	379.8
516.0	391.9
517.0	356.8
518.0	368.8
519.0	379.9
520.0	379.5
521.0	394.2
522.0	389.5
523.0	383.6
524.0	376.2
525.0	380.3
526.0	368.4
527.0	385.9
528.0	378.6
529.0	353.8
530.0	349.3
531.0	338.1
532.0	356.9
533.0	340.6
534.0	356.7
535.0	353.1
536.0	321.7
537.0	342.2
538.0	324.7
539.0	321.9
540.0	312.9
541.0	323.8
542.0	316.8
543.0	314.2
544.0	297.5
545.0	299.2
546.0	320.4
547.0	287.8
548.0	303.4
549.0	279.1
550.0	306.1
551.0	305.8
552.0	295.0
553.0	295.0
554.0	305.3
555.0	261.3
556.0	276.5
557.0	279.7
558.0	266.4
559.0	273.8
560.0	272.6
561.0	265.3
562.0	251.5
563.0	236.2
564.0	240.0
565.0	235.6
566.0	238.0
567.0	225.9
568.0	224.3
569.0	221.4
570.0	209.1
571.0	228.4
572.0	234.9
573.0	198.7
574.0	176.4
575.0	182.0
576.0	183.2
577.0	180.5
578.0	185.5
579.0	187.8
580.0	177.2
581.0	168.6
582.0	157.2
583.0	150.2
584.0	138.4
585.0	140.6
586.0	147.1
587.0	141.0
588.0	136.0
589.0	135.5
590.0	136.1
591.0	121.1
592.0	136.6
593.0	130.9
594.0	118.1
595.0	119.2
596.0	120.7
597.0	108.7
598.0	109.4
599.0	108.3
600.0	103.5
601.0	94.16
602.0	102.4
603.0	89.92
604.0	102.2
605.0	84.88
606.0	94.17
607.0	89.41
608.0	80.84
609.0	77.18
610.0	69.57
611.0	78.11
612.0	72.17
613.0	85.92
614.0	75.13
615.0	65.01
616.0	65.83
617.0	64.42
618.0	65.44
619.0	64.41
620.0	59.90
621.0	58.34
622.0	57.62
623.0	51.64
624.0	54.76
625.0	53.82
626.0	53.99
627.0	46.32
628.0	42.77
629.0	38.99
630.0	42.84
631.0	38.81
632.0	44.93
633.0	38.17
634.0	34.19
635.0	33.67
636.0	39.48
637.0	35.07
638.0	35.97
639.0	28.24
640.0	33.05
641.0	27.88
642.0	31.99
643.0	24.84
644.0	31.00
645.0	26.57
646.0	26.51
647.0	29.77
648.0	24.45
649.0	26.84
650.0	23.43
651.0	26.85
652.0	26.37
653.0	24.62
654.0	19.69
655.0	23.01
656.0	20.29
657.0	17.51
658.0	15.36
659.0	18.25
660.0	19.46
661.0	24.64
662.0	19.53
663.0	18.83
664.0	14.99
665.0	15.88
666.0	13.79
667.0	11.64
668.0	15.46
669.0	11.53
670.0	14.82
671.0	15.35
672.0	15.95
673.0	15.54
674.0	9.696
675.0	15.79
676.0	11.99
677.0	14.45
678.0	12.44
679.0	9.842
680.0	11.36
681.0	13.28
682.0	11.22
683.0	9.490
684.0	14.19
685.0	9.452
686.0	9.747
687.0	8.045
688.0	6.418
689.0	6.615
690.0	10.01
691.0	10.98
692.0	10.15
693.0	9.867
694.0	6.515
695.0	7.443
696.0	7.636
697.0	9.365
698.0	7.618
699.0	10.23
700.0	7.132
701.0	5.201
702.0	6.818
703.0	5.635
704.0	8.031
705.0	5.813
706.0	8.334
707.0	4.850
708.0	7.003
709.0	5.062
710.0	3.496
711.0	3.540
712.0	5.603
713.0	6.001
714.0	8.191
715.0	5.961
716.0	7.314
717.0	6.229
718.0	7.242
719.0	7.853
720.0	5.773
721.0	3.781
722.0	4.822
723.0	9.002
724.0	10.29
725.0	5.091
726.0	4.927
727.0	5.811
728.0	5.989
729.0	4.920
730.0	5.920
731.0	2.830
732.0	4.248
733.0	3.665
734.0	5.004
735.0	4.438
736.0	3.389
737.0	4.576
738.0	3.823
739.0	3.668
740.0	4.116
741.0	2.278
742.0	4.604
743.0	9.377
744.0	5.312
745.0	3.232
746.0	6.019
747.0	1.462
748.0	3.366
749.0	2.839
750.0	4.299
751.0	1.741
752.0	2.728
753.0	6.187
754.0	3.788
755.0	5.179
756.0	4.135
757.0	2.983
758.0	3.994
759.0	3.945
760.0	5.678
761.0	3.441
762.0	2.315
763.0	3.634
764.0	4.639
765.0	3.277
766.0	4.122
767.0	2.525
768.0	1.851
769.0	3.781
770.0	3.600
771.0	1.356
772.0	2.313
773.0	4.215
774.0	4.822
775.0	5.510
776.0	5.055
777.0	2.586
778.0	5.374
779.0	3.042
780.0	2.866

Sample:	'wa-5(EM)
File name:	40.FDS
Run Date:	'15:52:32, 07/11/2024
Operator:	WXH
Comment:	'

Instrument
Model:	F-4600 FL Spectrophotometer
Serial Number:	3080-002
ROM Version:	5J24000 02

Instrument Parameters
Measurement type:	Wavelength scan
Scan mode:	Emission
Data mode:	Fluorescence
EX WL:	460.0 nm
EM  Start WL:	480.0 nm
EM  End WL:	780.0 nm
Scan speed:	1200 nm/min
Delay:	0.0 s
EX Slit:	2.5 nm
EM Slit:	2.5 nm
PMT Voltage:	600 V
Response:	Auto 
Corrected spectra:	Off
Shutter control:	On

Peak integration
Integration method:	Rectangular
Sensitivity:	1
Threshold:	1.000

Peaks
No.	Valley(nm)	Valley(Data)
1	485.6	70.95
2	488.4	70.28
3	513.4	356.9
4	516.6	371.0
5	518.0	381.0
6	520.0	371.6
7	524.0	341.4
8	528.2	350.8
9	530.2	336.8
10	532.6	337.5
11	534.0	330.0
12	536.4	325.8
13	539.4	302.6
14	544.0	302.8
15	548.4	302.0
16	551.2	282.9
17	554.6	266.3
18	558.8	249.3
19	566.6	209.9
20	573.0	178.5
21	579.2	155.7
22	581.4	152.9
23	586.4	138.3
24	588.8	117.5
25	590.8	120.6
26	594.2	106.3
27	598.8	94.84
28	601.6	92.76
29	608.2	75.78
30	610.6	64.40
31	612.6	66.41
32	614.4	66.97
33	618.0	71.23
34	622.8	49.71
35	628.0	46.55
36	629.6	47.02
37	632.8	39.22
38	638.6	36.00
39	645.6	26.23
40	653.8	14.31
41	656.8	14.79
42	659.0	16.00
43	664.0	12.95
44	668.4	9.683
45	672.2	11.92
46	675.6	9.414
47	677.8	8.252
48	679.4	7.253
49	684.6	5.735
50	691.2	7.578
51	698.4	4.909
52	703.4	6.278
53	707.4	4.414
54	711.6	4.829
55	715.8	4.479
56	718.8	2.752
57	724.2	4.376
58	726.4	1.918
59	728.2	1.529
60	732.4	1.530
61	736.8	3.577
62	738.6	2.974
63	743.6	2.731
64	745.6	3.382
65	751.2	1.441
66	755.0	1.701
67	758.4	3.675
68	761.4	1.956
69	766.4	3.048
70	769.8	1.163
71	775.0	2.427
72	777.2	1.261

Data Points
nm	Data
480.0	77.59
481.0	74.37
482.0	71.28
483.0	78.50
484.0	82.24
485.0	88.68
486.0	78.53
487.0	80.23
488.0	78.30
489.0	87.88
490.0	99.51
491.0	103.6
492.0	114.0
493.0	117.2
494.0	133.0
495.0	135.1
496.0	147.2
497.0	163.5
498.0	163.0
499.0	184.4
500.0	205.0
501.0	226.7
502.0	245.7
503.0	258.3
504.0	264.4
505.0	266.9
506.0	303.0
507.0	309.8
508.0	315.9
509.0	329.6
510.0	336.7
511.0	375.1
512.0	366.7
513.0	367.1
514.0	369.6
515.0	393.6
516.0	376.3
517.0	393.8
518.0	381.0
519.0	402.7
520.0	371.6
521.0	384.0
522.0	380.4
523.0	363.5
524.0	341.4
525.0	387.0
526.0	368.7
527.0	363.7
528.0	356.0
529.0	366.6
530.0	353.3
531.0	357.9
532.0	350.1
533.0	346.7
534.0	330.0
535.0	346.8
536.0	333.6
537.0	328.1
538.0	333.1
539.0	312.5
540.0	315.2
541.0	319.6
542.0	325.8
543.0	315.5
544.0	302.8
545.0	315.6
546.0	312.6
547.0	313.5
548.0	304.2
549.0	310.8
550.0	307.2
551.0	291.2
552.0	288.5
553.0	289.0
554.0	287.2
555.0	274.9
556.0	304.7
557.0	265.8
558.0	268.7
559.0	258.5
560.0	265.7
561.0	258.4
562.0	260.4
563.0	257.0
564.0	253.2
565.0	238.1
566.0	216.7
567.0	222.1
568.0	221.1
569.0	227.0
570.0	233.2
571.0	214.4
572.0	214.1
573.0	178.5
574.0	185.9
575.0	189.1
576.0	181.0
577.0	186.1
578.0	186.4
579.0	162.5
580.0	167.5
581.0	156.4
582.0	160.0
583.0	157.1
584.0	154.1
585.0	140.9
586.0	138.7
587.0	145.6
588.0	142.1
589.0	126.8
590.0	133.0
591.0	134.8
592.0	114.2
593.0	116.2
594.0	113.2
595.0	116.7
596.0	113.8
597.0	104.1
598.0	102.7
599.0	100.0
600.0	102.5
601.0	99.49
602.0	117.3
603.0	103.7
604.0	101.0
605.0	93.16
606.0	88.52
607.0	87.21
608.0	79.74
609.0	85.74
610.0	73.67
611.0	77.87
612.0	67.64
613.0	69.28
614.0	78.12
615.0	70.72
616.0	71.48
617.0	73.88
618.0	71.23
619.0	73.64
620.0	72.31
621.0	58.41
622.0	57.39
623.0	55.32
624.0	51.45
625.0	56.33
626.0	62.03
627.0	51.55
628.0	46.55
629.0	54.06
630.0	62.41
631.0	45.22
632.0	42.44
633.0	41.34
634.0	45.74
635.0	36.98
636.0	36.45
637.0	35.73
638.0	37.16
639.0	39.99
640.0	35.09
641.0	33.83
642.0	41.46
643.0	34.35
644.0	34.63
645.0	32.83
646.0	28.79
647.0	31.81
648.0	29.36
649.0	30.43
650.0	24.80
651.0	20.42
652.0	23.40
653.0	19.85
654.0	20.35
655.0	19.00
656.0	20.26
657.0	16.40
658.0	17.59
659.0	16.00
660.0	26.55
661.0	28.09
662.0	17.50
663.0	17.48
664.0	12.95
665.0	17.70
666.0	15.77
667.0	14.93
668.0	12.24
669.0	12.83
670.0	12.61
671.0	17.64
672.0	12.70
673.0	12.80
674.0	14.81
675.0	13.58
676.0	11.70
677.0	11.58
678.0	10.48
679.0	8.987
680.0	10.37
681.0	10.49
682.0	13.72
683.0	13.51
684.0	7.681
685.0	6.796
686.0	9.453
687.0	10.50
688.0	9.311
689.0	10.07
690.0	10.32
691.0	9.087
692.0	9.129
693.0	7.151
694.0	7.529
695.0	7.115
696.0	7.341
697.0	6.747
698.0	7.991
699.0	8.598
700.0	7.734
701.0	10.06
702.0	5.537
703.0	6.889
704.0	6.564
705.0	8.425
706.0	5.129
707.0	6.093
708.0	5.586
709.0	8.320
710.0	5.058
711.0	8.893
712.0	5.940
713.0	8.472
714.0	11.25
715.0	4.832
716.0	5.541
717.0	6.849
718.0	6.208
719.0	3.268
720.0	6.235
721.0	5.823
722.0	5.476
723.0	6.937
724.0	5.722
725.0	4.849
726.0	3.401
727.0	8.544
728.0	2.490
729.0	4.317
730.0	4.670
731.0	4.080
732.0	2.562
733.0	4.489
734.0	4.992
735.0	5.310
736.0	4.334
737.0	4.758
738.0	5.637
739.0	5.960
740.0	5.927
741.0	5.113
742.0	3.335
743.0	3.456
744.0	3.452
745.0	4.881
746.0	3.576
747.0	6.227
748.0	2.877
749.0	3.692
750.0	2.291
751.0	2.135
752.0	4.403
753.0	4.630
754.0	4.674
755.0	1.701
756.0	3.490
757.0	3.982
758.0	4.171
759.0	4.654
760.0	3.680
761.0	2.968
762.0	3.979
763.0	4.414
764.0	4.219
765.0	4.278
766.0	4.452
767.0	3.811
768.0	6.012
769.0	2.663
770.0	1.269
771.0	5.448
772.0	6.465
773.0	5.463
774.0	4.012
775.0	2.427
776.0	4.615
777.0	1.787
778.0	2.612
779.0	3.289
780.0	4.204

Sample:	'wa-6(EM)
File name:	40.FDS
Run Date:	'15:53:02, 07/11/2024
Operator:	WXH
Comment:	'

Instrument
Model:	F-4600 FL Spectrophotometer
Serial Number:	3080-002
ROM Version:	5J24000 02

Instrument Parameters
Measurement type:	Wavelength scan
Scan mode:	Emission
Data mode:	Fluorescence
EX WL:	460.0 nm
EM  Start WL:	480.0 nm
EM  End WL:	780.0 nm
Scan speed:	1200 nm/min
Delay:	0.0 s
EX Slit:	2.5 nm
EM Slit:	2.5 nm
PMT Voltage:	600 V
Response:	Auto 
Corrected spectra:	Off
Shutter control:	On

Peak integration
Integration method:	Rectangular
Sensitivity:	1
Threshold:	1.000

Peaks
No.	Valley(nm)	Valley(Data)
1	483.8	71.59
2	490.2	78.67
3	507.2	284.5
4	515.6	358.2
5	521.0	369.0
6	525.6	350.9
7	529.4	336.9
8	534.8	322.2
9	539.8	311.3
10	543.0	293.8
11	546.2	296.3
12	549.0	279.4
13	554.0	262.9
14	558.4	261.6
15	562.6	238.0
16	566.2	221.1
17	571.4	186.4
18	576.8	165.9
19	579.8	153.9
20	583.2	146.1
21	591.2	121.7
22	593.4	108.2
23	597.4	93.97
24	601.4	93.49
25	603.2	88.76
26	608.6	73.73
27	613.4	65.51
28	617.0	62.90
29	620.6	51.91
30	625.6	42.38
31	631.2	37.69
32	632.4	36.95
33	635.8	33.67
34	639.4	24.85
35	643.6	29.36
36	646.6	20.96
37	649.6	22.91
38	653.0	21.78
39	656.6	18.22
40	659.0	14.01
41	666.4	13.84
42	669.0	13.06
43	671.8	12.77
44	674.2	10.67
45	676.8	8.920
46	683.0	8.314
47	685.8	8.880
48	690.4	8.580
49	694.0	5.540
50	697.2	6.034
51	699.6	4.832
52	702.2	5.326
53	708.4	4.125
54	711.0	3.232
55	716.6	3.265
56	725.8	2.744
57	729.8	2.563
58	732.4	2.970
59	736.6	2.317
60	740.0	1.242
61	741.8	2.546
62	746.2	3.615
63	751.4	1.385
64	753.6	2.698
65	756.0	3.285
66	758.4	2.807
67	759.8	2.629
68	761.8	2.909
69	764.4	2.157
70	768.8	2.014
71	771.6	1.696
72	778.4	1.757

Data Points
nm	Data
480.0	99.43
481.0	66.30
482.0	77.05
483.0	75.79
484.0	80.37
485.0	76.79
486.0	78.61
487.0	83.72
488.0	85.61
489.0	85.37
490.0	84.14
491.0	94.40
492.0	102.5
493.0	119.9
494.0	126.7
495.0	144.7
496.0	158.5
497.0	164.5
498.0	171.7
499.0	194.9
500.0	207.2
501.0	220.6
502.0	232.8
503.0	253.0
504.0	278.2
505.0	279.9
506.0	303.1
507.0	290.0
508.0	300.8
509.0	340.0
510.0	334.6
511.0	353.3
512.0	363.6
513.0	367.5
514.0	368.1
515.0	375.7
516.0	381.5
517.0	374.5
518.0	384.6
519.0	390.9
520.0	405.5
521.0	369.0
522.0	379.8
523.0	374.2
524.0	385.6
525.0	360.3
526.0	373.9
527.0	359.4
528.0	346.8
529.0	346.0
530.0	358.2
531.0	358.6
532.0	348.3
533.0	357.3
534.0	333.8
535.0	333.5
536.0	338.6
537.0	354.7
538.0	338.0
539.0	321.7
540.0	314.2
541.0	336.0
542.0	319.6
543.0	293.8
544.0	319.1
545.0	321.6
546.0	299.6
547.0	309.0
548.0	290.6
549.0	279.4
550.0	287.0
551.0	302.4
552.0	298.1
553.0	287.3
554.0	262.9
555.0	290.1
556.0	281.0
557.0	275.6
558.0	271.5
559.0	273.5
560.0	269.3
561.0	260.6
562.0	253.9
563.0	239.9
564.0	255.0
565.0	248.0
566.0	223.6
567.0	242.0
568.0	232.8
569.0	213.9
570.0	209.1
571.0	199.6
572.0	195.6
573.0	197.1
574.0	199.1
575.0	193.7
576.0	180.8
577.0	178.4
578.0	183.8
579.0	162.2
580.0	161.0
581.0	166.0
582.0	171.7
583.0	160.3
584.0	152.3
585.0	159.0
586.0	156.5
587.0	137.6
588.0	141.8
589.0	139.9
590.0	129.2
591.0	122.8
592.0	134.4
593.0	110.2
594.0	114.1
595.0	116.5
596.0	110.9
597.0	96.25
598.0	110.5
599.0	105.5
600.0	103.1
601.0	97.46
602.0	100.1
603.0	94.10
604.0	96.28
605.0	86.33
606.0	94.76
607.0	85.94
608.0	79.29
609.0	86.46
610.0	84.53
611.0	78.34
612.0	77.42
613.0	70.85
614.0	75.34
615.0	73.26
616.0	71.57
617.0	62.90
618.0	76.38
619.0	69.36
620.0	60.17
621.0	62.45
622.0	51.09
623.0	61.27
624.0	54.56
625.0	48.39
626.0	43.33
627.0	49.54
628.0	50.36
629.0	48.44
630.0	44.54
631.0	41.12
632.0	46.08
633.0	39.98
634.0	40.42
635.0	37.61
636.0	35.22
637.0	49.51
638.0	36.05
639.0	32.38
640.0	30.53
641.0	31.41
642.0	34.14
643.0	34.35
644.0	38.44
645.0	33.43
646.0	25.76
647.0	26.96
648.0	25.26
649.0	22.94
650.0	28.13
651.0	23.33
652.0	24.36
653.0	21.78
654.0	22.81
655.0	25.65
656.0	20.76
657.0	24.56
658.0	20.14
659.0	14.01
660.0	16.11
661.0	17.00
662.0	21.79
663.0	15.92
664.0	15.40
665.0	15.18
666.0	16.39
667.0	15.83
668.0	16.99
669.0	13.06
670.0	16.90
671.0	16.47
672.0	14.75
673.0	13.95
674.0	13.13
675.0	15.84
676.0	10.50
677.0	9.381
678.0	12.02
679.0	13.35
680.0	14.48
681.0	14.06
682.0	14.48
683.0	8.314
684.0	15.73
685.0	10.56
686.0	10.11
687.0	16.45
688.0	13.80
689.0	13.48
690.0	11.13
691.0	10.53
692.0	10.59
693.0	7.058
694.0	5.540
695.0	9.129
696.0	7.402
697.0	7.031
698.0	11.06
699.0	6.221
700.0	5.990
701.0	11.33
702.0	6.924
703.0	7.376
704.0	7.164
705.0	7.829
706.0	10.34
707.0	5.418
708.0	5.561
709.0	5.462
710.0	5.599
711.0	3.232
712.0	5.510
713.0	8.038
714.0	7.236
715.0	5.204
716.0	6.014
717.0	4.089
718.0	6.099
719.0	6.003
720.0	5.159
721.0	6.142
722.0	7.272
723.0	7.102
724.0	5.144
725.0	4.820
726.0	6.713
727.0	3.347
728.0	2.618
729.0	1.605
730.0	3.058
731.0	2.597
732.0	4.216
733.0	4.570
734.0	5.073
735.0	5.298
736.0	4.171
737.0	3.736
738.0	3.924
739.0	3.564
740.0	1.242
741.0	5.196
742.0	2.608
743.0	8.663
744.0	7.166
745.0	7.349
746.0	3.814
747.0	4.657
748.0	4.546
749.0	5.660
750.0	2.946
751.0	2.343
752.0	2.227
753.0	5.569
754.0	3.666
755.0	5.040
756.0	3.285
757.0	5.274
758.0	2.870
759.0	6.447
760.0	3.239
761.0	3.808
762.0	3.933
763.0	5.820
764.0	3.235
765.0	5.515
766.0	7.266
767.0	3.874
768.0	2.660
769.0	2.775
770.0	6.651
771.0	3.594
772.0	2.495
773.0	3.058
774.0	5.246
775.0	5.074
776.0	4.495
777.0	4.196
778.0	3.978
779.0	2.830
780.0	4.195

Sample:	'wa-7(EM)
File name:	40.FDS
Run Date:	'15:53:32, 07/11/2024
Operator:	WXH
Comment:	'

Instrument
Model:	F-4600 FL Spectrophotometer
Serial Number:	3080-002
ROM Version:	5J24000 02

Instrument Parameters
Measurement type:	Wavelength scan
Scan mode:	Emission
Data mode:	Fluorescence
EX WL:	460.0 nm
EM  Start WL:	480.0 nm
EM  End WL:	780.0 nm
Scan speed:	1200 nm/min
Delay:	0.0 s
EX Slit:	2.5 nm
EM Slit:	2.5 nm
PMT Voltage:	600 V
Response:	Auto 
Corrected spectra:	Off
Shutter control:	On

Peak integration
Integration method:	Rectangular
Sensitivity:	1
Threshold:	1.000

Peaks
No.	Valley(nm)	Valley(Data)
1	483.2	67.32
2	486.2	68.89
3	505.6	275.7
4	512.8	346.5
5	514.4	359.8
6	517.6	373.7
7	519.2	371.3
8	524.6	370.8
9	527.0	357.2
10	532.4	322.4
11	538.8	309.7
12	542.6	305.0
13	544.6	295.4
14	551.0	285.4
15	554.0	280.3
16	559.2	236.6
17	563.4	236.6
18	566.8	216.2
19	570.0	207.2
20	577.2	170.0
21	584.2	142.8
22	588.2	132.9
23	591.6	120.8
24	593.8	107.8
25	596.4	108.7
26	601.2	92.90
27	605.8	81.19
28	608.4	78.89
29	613.0	69.02
30	615.4	66.92
31	616.8	62.72
32	620.2	52.29
33	626.4	39.69
34	630.4	34.30
35	633.6	40.40
36	638.0	32.06
37	641.0	27.81
38	646.2	23.87
39	648.2	23.06
40	651.4	18.03
41	654.4	19.12
42	659.2	16.02
43	664.0	15.22
44	668.4	10.78
45	673.6	7.738
46	681.6	7.841
47	689.6	6.480
48	692.0	4.834
49	693.2	6.303
50	696.8	5.532
51	699.4	6.562
52	703.8	3.444
53	708.2	5.165
54	711.6	2.754
55	715.2	3.244
56	722.6	2.229
57	724.6	2.220
58	726.4	3.871
59	728.0	3.804
60	729.6	3.884
61	735.6	1.425
62	737.6	3.244
63	742.4	2.761
64	744.2	2.299
65	749.2	2.288
66	750.8	2.750
67	754.4	2.046
68	758.2	2.083
69	761.6	1.223
70	770.6	1.384
71	775.8	2.369
72	780.0	3.847

Data Points
nm	Data
480.0	54.99
481.0	69.15
482.0	75.46
483.0	71.67
484.0	71.53
485.0	70.84
486.0	71.60
487.0	72.53
488.0	79.35
489.0	86.55
490.0	98.67
491.0	110.7
492.0	104.3
493.0	112.7
494.0	115.7
495.0	135.2
496.0	145.0
497.0	174.3
498.0	175.2
499.0	185.3
500.0	213.1
501.0	226.2
502.0	239.5
503.0	245.0
504.0	270.6
505.0	283.5
506.0	291.8
507.0	304.1
508.0	317.4
509.0	311.9
510.0	337.1
511.0	348.5
512.0	353.5
513.0	358.0
514.0	366.3
515.0	364.8
516.0	389.8
517.0	381.5
518.0	377.2
519.0	376.6
520.0	387.9
521.0	389.8
522.0	408.8
523.0	381.0
524.0	381.4
525.0	379.9
526.0	375.0
527.0	357.2
528.0	371.1
529.0	364.7
530.0	351.6
531.0	346.2
532.0	338.8
533.0	343.9
534.0	341.6
535.0	337.9
536.0	345.0
537.0	335.8
538.0	317.7
539.0	311.6
540.0	329.5
541.0	321.3
542.0	317.1
543.0	317.2
544.0	320.7
545.0	304.5
546.0	308.4
547.0	310.9
548.0	306.2
549.0	304.1
550.0	309.7
551.0	285.4
552.0	323.7
553.0	293.8
554.0	280.3
555.0	299.4
556.0	278.1
557.0	280.7
558.0	263.5
559.0	246.1
560.0	243.6
561.0	260.2
562.0	244.5
563.0	251.1
564.0	248.2
565.0	238.9
566.0	218.1
567.0	226.8
568.0	234.0
569.0	225.6
570.0	207.2
571.0	216.4
572.0	216.0
573.0	187.1
574.0	192.8
575.0	179.4
576.0	183.0
577.0	177.2
578.0	176.9
579.0	171.5
580.0	172.6
581.0	160.2
582.0	149.1
583.0	151.9
584.0	143.9
585.0	149.5
586.0	153.4
587.0	142.7
588.0	136.1
589.0	141.2
590.0	147.4
591.0	124.1
592.0	126.3
593.0	123.4
594.0	116.4
595.0	116.1
596.0	117.6
597.0	115.9
598.0	117.7
599.0	106.4
600.0	109.1
601.0	94.90
602.0	100.4
603.0	102.5
604.0	105.5
605.0	99.65
606.0	85.62
607.0	85.70
608.0	83.75
609.0	81.64
610.0	79.20
611.0	78.86
612.0	71.17
613.0	69.02
614.0	74.75
615.0	69.47
616.0	79.21
617.0	63.09
618.0	70.23
619.0	60.98
620.0	54.29
621.0	64.05
622.0	62.67
623.0	57.53
624.0	55.17
625.0	50.47
626.0	46.13
627.0	46.22
628.0	56.89
629.0	56.91
630.0	40.79
631.0	42.40
632.0	46.87
633.0	44.44
634.0	43.59
635.0	36.26
636.0	40.09
637.0	33.23
638.0	32.06
639.0	36.44
640.0	34.17
641.0	27.81
642.0	28.90
643.0	32.83
644.0	29.68
645.0	30.85
646.0	28.47
647.0	28.97
648.0	24.57
649.0	26.00
650.0	26.64
651.0	20.24
652.0	20.81
653.0	21.37
654.0	19.13
655.0	27.97
656.0	29.18
657.0	25.72
658.0	22.76
659.0	19.30
660.0	18.07
661.0	16.89
662.0	20.39
663.0	20.05
664.0	15.22
665.0	18.34
666.0	14.87
667.0	17.19
668.0	12.33
669.0	13.04
670.0	14.02
671.0	17.41
672.0	9.406
673.0	10.15
674.0	8.964
675.0	15.16
676.0	14.43
677.0	11.99
678.0	16.29
679.0	9.083
680.0	9.676
681.0	8.312
682.0	10.07
683.0	11.83
684.0	12.18
685.0	11.98
686.0	11.70
687.0	7.489
688.0	7.788
689.0	7.868
690.0	9.305
691.0	7.569
692.0	4.834
693.0	8.021
694.0	8.498
695.0	8.958
696.0	10.59
697.0	6.979
698.0	8.627
699.0	7.672
700.0	11.11
701.0	5.768
702.0	5.664
703.0	5.615
704.0	3.495
705.0	6.741
706.0	5.761
707.0	9.203
708.0	5.194
709.0	5.209
710.0	5.514
711.0	5.774
712.0	5.459
713.0	10.06
714.0	5.511
715.0	3.722
716.0	6.254
717.0	7.292
718.0	10.10
719.0	7.884
720.0	5.206
721.0	3.817
722.0	3.892
723.0	3.883
724.0	3.907
725.0	3.991
726.0	4.461
727.0	6.453
728.0	3.804
729.0	7.041
730.0	5.196
731.0	5.121
732.0	5.440
733.0	4.490
734.0	5.559
735.0	3.225
736.0	3.182
737.0	4.794
738.0	4.763
739.0	6.488
740.0	7.223
741.0	6.327
742.0	3.022
743.0	4.897
744.0	3.399
745.0	5.003
746.0	5.007
747.0	3.461
748.0	2.965
749.0	3.370
750.0	3.929
751.0	3.093
752.0	6.346
753.0	5.673
754.0	3.094
755.0	2.052
756.0	4.654
757.0	5.052
758.0	2.954
759.0	5.275
760.0	3.610
761.0	3.271
762.0	3.308
763.0	3.390
764.0	5.339
765.0	4.844
766.0	3.423
767.0	3.712
768.0	3.884
769.0	4.988
770.0	4.153
771.0	3.070
772.0	2.060
773.0	2.650
774.0	4.499
775.0	6.077
776.0	2.540
777.0	3.645
778.0	5.712
779.0	6.964
780.0	3.847

Sample:	'wa-8(EM)
File name:	40.FDS
Run Date:	'15:54:03, 07/11/2024
Operator:	WXH
Comment:	'

Instrument
Model:	F-4600 FL Spectrophotometer
Serial Number:	3080-002
ROM Version:	5J24000 02

Instrument Parameters
Measurement type:	Wavelength scan
Scan mode:	Emission
Data mode:	Fluorescence
EX WL:	460.0 nm
EM  Start WL:	480.0 nm
EM  End WL:	780.0 nm
Scan speed:	1200 nm/min
Delay:	0.0 s
EX Slit:	2.5 nm
EM Slit:	2.5 nm
PMT Voltage:	600 V
Response:	Auto 
Corrected spectra:	Off
Shutter control:	On

Peak integration
Integration method:	Rectangular
Sensitivity:	1
Threshold:	1.000

Peaks
No.	Valley(nm)	Valley(Data)
1	483.0	61.18
2	487.2	70.23
3	492.6	94.32
4	495.4	130.9
5	512.0	354.5
6	514.4	348.5
7	517.2	356.6
8	519.0	368.0
9	521.2	376.1
10	524.4	366.5
11	529.2	340.9
12	531.2	346.8
13	533.0	327.8
14	536.2	322.5
15	539.2	306.9
16	542.2	292.2
17	543.6	296.5
18	548.0	300.1
19	550.6	288.8
20	552.6	280.6
21	556.8	268.7
22	558.8	256.8
23	561.4	248.5
24	568.8	212.7
25	572.8	179.8
26	576.2	174.8
27	578.4	168.7
28	585.6	134.0
29	588.2	131.4
30	592.4	112.9
31	595.8	106.4
32	601.2	94.67
33	603.4	90.06
34	609.2	78.46
35	613.2	71.91
36	616.8	60.36
37	618.6	55.46
38	624.2	48.80
39	631.8	39.89
40	635.4	33.93
41	637.2	31.98
42	640.4	30.82
43	646.6	22.87
44	651.0	19.65
45	653.0	19.31
46	656.6	15.71
47	659.4	15.67
48	661.8	15.11
49	665.8	10.73
50	669.6	12.15
51	671.6	9.651
52	677.0	8.974
53	682.0	5.859
54	685.8	8.962
55	688.4	5.056
56	690.4	7.018
57	695.4	6.293
58	698.2	4.816
59	705.2	4.637
60	707.0	4.110
61	709.2	3.132
62	710.4	6.143
63	714.2	4.852
64	717.2	2.683
65	720.8	3.663
66	722.4	3.168
67	727.4	3.837
68	731.4	1.528
69	737.8	3.090
70	740.0	2.796
71	745.2	2.334
72	750.0	1.678
73	755.0	1.619
74	762.4	1.570
75	764.8	2.086
76	771.4	3.746
77	775.0	2.822
78	780.0	4.490

Data Points
nm	Data
480.0	70.20
481.0	71.15
482.0	67.97
483.0	61.18
484.0	74.49
485.0	73.59
486.0	73.31
487.0	71.04
488.0	78.84
489.0	80.59
490.0	103.9
491.0	96.67
492.0	116.6
493.0	102.3
494.0	131.8
495.0	135.3
496.0	139.3
497.0	169.2
498.0	166.9
499.0	184.9
500.0	221.5
501.0	206.8
502.0	244.8
503.0	263.7
504.0	272.8
505.0	279.5
506.0	301.6
507.0	312.0
508.0	323.0
509.0	317.8
510.0	352.7
511.0	358.3
512.0	354.5
513.0	368.5
514.0	367.0
515.0	354.7
516.0	390.3
517.0	378.3
518.0	383.4
519.0	368.0
520.0	382.3
521.0	378.0
522.0	391.7
523.0	380.3
524.0	379.5
525.0	369.8
526.0	383.2
527.0	356.3
528.0	354.1
529.0	354.2
530.0	359.1
531.0	350.7
532.0	356.8
533.0	327.8
534.0	329.9
535.0	333.5
536.0	329.3
537.0	326.9
538.0	334.3
539.0	312.5
540.0	318.8
541.0	342.0
542.0	297.1
543.0	312.3
544.0	301.0
545.0	318.5
546.0	307.6
547.0	320.1
548.0	300.1
549.0	309.6
550.0	305.8
551.0	317.1
552.0	310.7
553.0	285.8
554.0	291.2
555.0	283.0
556.0	298.1
557.0	276.1
558.0	275.4
559.0	263.7
560.0	266.4
561.0	263.6
562.0	268.7
563.0	247.0
564.0	244.1
565.0	239.3
566.0	240.5
567.0	230.3
568.0	228.7
569.0	216.7
570.0	223.1
571.0	221.5
572.0	204.8
573.0	189.9
574.0	194.6
575.0	197.0
576.0	180.7
577.0	184.7
578.0	181.8
579.0	172.9
580.0	180.6
581.0	173.2
582.0	171.4
583.0	152.2
584.0	142.1
585.0	150.5
586.0	142.1
587.0	142.0
588.0	136.9
589.0	144.9
590.0	128.9
591.0	125.4
592.0	115.8
593.0	127.1
594.0	121.8
595.0	119.0
596.0	112.3
597.0	112.7
598.0	117.0
599.0	113.5
600.0	104.4
601.0	97.47
602.0	106.3
603.0	97.14
604.0	106.9
605.0	100.7
606.0	93.80
607.0	101.4
608.0	89.70
609.0	86.52
610.0	88.61
611.0	83.37
612.0	77.90
613.0	74.59
614.0	73.26
615.0	73.44
616.0	63.60
617.0	60.42
618.0	63.49
619.0	57.86
620.0	67.87
621.0	66.80
622.0	57.12
623.0	59.23
624.0	50.59
625.0	58.06
626.0	53.01
627.0	48.50
628.0	47.82
629.0	47.68
630.0	45.78
631.0	41.86
632.0	40.22
633.0	47.36
634.0	37.99
635.0	35.79
636.0	36.86
637.0	34.34
638.0	34.77
639.0	37.46
640.0	35.01
641.0	38.95
642.0	34.08
643.0	28.38
644.0	28.72
645.0	25.93
646.0	27.82
647.0	23.13
648.0	29.73
649.0	21.58
650.0	20.94
651.0	19.65
652.0	24.14
653.0	19.31
654.0	29.15
655.0	28.10
656.0	21.44
657.0	21.95
658.0	24.28
659.0	18.60
660.0	20.64
661.0	23.11
662.0	16.55
663.0	18.17
664.0	16.81
665.0	15.57
666.0	15.94
667.0	14.08
668.0	13.95
669.0	13.93
670.0	15.70
671.0	13.39
672.0	14.27
673.0	15.59
674.0	18.04
675.0	11.55
676.0	12.66
677.0	8.974
678.0	12.20
679.0	12.31
680.0	10.46
681.0	9.440
682.0	5.859
683.0	12.60
684.0	12.24
685.0	11.50
686.0	10.03
687.0	11.43
688.0	6.719
689.0	8.633
690.0	8.622
691.0	10.43
692.0	8.467
693.0	8.544
694.0	9.544
695.0	7.371
696.0	8.431
697.0	7.891
698.0	7.417
699.0	8.038
700.0	7.287
701.0	7.443
702.0	6.938
703.0	7.232
704.0	6.330
705.0	6.032
706.0	7.573
707.0	4.110
708.0	6.303
709.0	4.300
710.0	7.572
711.0	6.812
712.0	10.40
713.0	6.221
714.0	5.195
715.0	6.719
716.0	5.870
717.0	2.897
718.0	5.491
719.0	4.308
720.0	4.368
721.0	5.500
722.0	5.648
723.0	4.976
724.0	6.039
725.0	6.453
726.0	7.451
727.0	4.060
728.0	5.725
729.0	3.672
730.0	3.940
731.0	2.969
732.0	4.257
733.0	3.335
734.0	4.321
735.0	4.882
736.0	3.566
737.0	4.607
738.0	3.741
739.0	5.395
740.0	2.796
741.0	4.793
742.0	6.718
743.0	7.608
744.0	5.247
745.0	3.789
746.0	8.041
747.0	7.312
748.0	6.344
749.0	1.890
750.0	1.678
751.0	4.227
752.0	1.688
753.0	7.625
754.0	4.426
755.0	1.619
756.0	2.583
757.0	5.068
758.0	4.875
759.0	7.080
760.0	5.007
761.0	6.080
762.0	2.476
763.0	3.093
764.0	4.095
765.0	2.110
766.0	3.303
767.0	4.724
768.0	5.754
769.0	4.385
770.0	5.278
771.0	5.625
772.0	4.026
773.0	5.126
774.0	3.042
775.0	2.822
776.0	4.653
777.0	4.210
778.0	7.144
779.0	3.255
780.0	4.490

Sample:	'wa-9(EM)
File name:	40.FDS
Run Date:	'15:54:33, 07/11/2024
Operator:	WXH
Comment:	'

Instrument
Model:	F-4600 FL Spectrophotometer
Serial Number:	3080-002
ROM Version:	5J24000 02

Instrument Parameters
Measurement type:	Wavelength scan
Scan mode:	Emission
Data mode:	Fluorescence
EX WL:	460.0 nm
EM  Start WL:	480.0 nm
EM  End WL:	780.0 nm
Scan speed:	1200 nm/min
Delay:	0.0 s
EX Slit:	2.5 nm
EM Slit:	2.5 nm
PMT Voltage:	600 V
Response:	Auto 
Corrected spectra:	Off
Shutter control:	On

Peak integration
Integration method:	Rectangular
Sensitivity:	1
Threshold:	1.000

Peaks
No.	Valley(nm)	Valley(Data)
1	484.0	61.53
2	489.6	75.43
3	505.6	283.5
4	511.8	336.9
5	517.2	340.8
6	528.4	351.4
7	530.8	314.9
8	532.4	312.4
9	537.4	323.7
10	540.2	305.6
11	545.8	296.3
12	547.6	293.4
13	550.0	286.3
14	553.0	268.6
15	554.6	267.6
16	560.4	253.8
17	568.0	216.7
18	572.0	189.5
19	576.8	184.0
20	578.0	167.6
21	588.0	126.1
22	591.0	120.4
23	594.2	109.3
24	596.8	105.0
25	600.2	91.35
26	605.6	85.64
27	610.4	76.50
28	612.4	74.70
29	616.8	62.62
30	622.4	52.82
31	625.8	50.83
32	628.0	41.39
33	630.6	44.41
34	634.4	33.53
35	639.0	27.17
36	642.6	27.40
37	646.0	27.83
38	650.2	22.78
39	654.4	17.28
40	659.2	16.99
41	662.6	14.46
42	664.4	15.30
43	667.0	12.53
44	673.2	7.630
45	681.4	7.188
46	686.8	6.292
47	689.4	5.147
48	693.4	4.636
49	696.4	6.419
50	700.0	4.705
51	704.0	5.532
52	706.0	3.888
53	707.8	4.109
54	713.0	3.030
55	719.4	2.724
56	722.6	4.496
57	725.0	3.695
58	727.8	1.759
59	730.8	2.248
60	733.8	1.175
61	737.8	2.261
62	740.8	3.157
63	743.0	3.775
64	745.2	3.886
65	748.4	3.929
66	752.0	2.011
67	757.0	0.523
68	761.0	0.257
69	766.6	1.327
70	769.4	2.262
71	773.6	2.266
72	776.8	1.341

Data Points
nm	Data
480.0	66.91
481.0	66.25
482.0	64.11
483.0	69.70
484.0	61.53
485.0	67.28
486.0	70.31
487.0	77.99
488.0	77.92
489.0	82.02
490.0	84.60
491.0	101.7
492.0	105.9
493.0	111.8
494.0	113.5
495.0	141.4
496.0	156.3
497.0	167.8
498.0	177.8
499.0	189.4
500.0	187.2
501.0	228.1
502.0	249.0
503.0	255.3
504.0	270.7
505.0	278.1
506.0	287.0
507.0	288.2
508.0	318.1
509.0	327.4
510.0	328.0
511.0	348.2
512.0	340.2
513.0	361.4
514.0	366.3
515.0	377.0
516.0	375.9
517.0	356.2
518.0	379.9
519.0	378.5
520.0	387.0
521.0	382.0
522.0	381.0
523.0	389.5
524.0	370.8
525.0	363.5
526.0	359.0
527.0	356.4
528.0	358.1
529.0	356.7
530.0	346.8
531.0	350.4
532.0	339.4
533.0	336.2
534.0	339.8
535.0	337.4
536.0	327.8
537.0	324.3
538.0	337.7
539.0	317.1
540.0	308.7
541.0	331.1
542.0	327.0
543.0	315.9
544.0	312.0
545.0	305.8
546.0	303.0
547.0	302.9
548.0	298.3
549.0	293.7
550.0	286.3
551.0	307.5
552.0	284.5
553.0	268.6
554.0	282.9
555.0	278.5
556.0	274.5
557.0	281.9
558.0	274.5
559.0	264.7
560.0	254.9
561.0	261.1
562.0	247.7
563.0	241.8
564.0	249.7
565.0	253.3
566.0	239.3
567.0	228.4
568.0	216.7
569.0	229.2
570.0	217.6
571.0	208.7
572.0	189.5
573.0	194.3
574.0	187.8
575.0	200.1
576.0	188.3
577.0	190.2
578.0	167.6
579.0	177.6
580.0	175.2
581.0	159.7
582.0	155.9
583.0	156.6
584.0	153.0
585.0	151.4
586.0	147.0
587.0	131.3
588.0	126.1
589.0	140.8
590.0	137.8
591.0	120.4
592.0	141.0
593.0	111.5
594.0	112.3
595.0	114.8
596.0	118.2
597.0	108.8
598.0	120.8
599.0	107.4
600.0	94.57
601.0	104.2
602.0	116.9
603.0	99.80
604.0	93.26
605.0	86.94
606.0	99.91
607.0	82.24
608.0	89.24
609.0	89.33
610.0	77.20
611.0	85.24
612.0	77.11
613.0	79.75
614.0	83.48
615.0	79.46
616.0	69.91
617.0	67.37
618.0	68.30
619.0	61.23
620.0	64.36
621.0	62.96
622.0	55.96
623.0	65.75
624.0	52.42
625.0	58.35
626.0	57.89
627.0	56.60
628.0	41.39
629.0	52.72
630.0	47.42
631.0	45.36
632.0	46.51
633.0	36.97
634.0	36.98
635.0	43.12
636.0	34.52
637.0	32.04
638.0	31.91
639.0	27.17
640.0	40.09
641.0	35.90
642.0	31.15
643.0	31.41
644.0	34.25
645.0	33.97
646.0	27.83
647.0	33.83
648.0	29.83
649.0	24.74
650.0	28.85
651.0	23.01
652.0	22.76
653.0	18.27
654.0	18.49
655.0	18.31
656.0	22.23
657.0	26.31
658.0	24.17
659.0	18.57
660.0	20.80
661.0	19.92
662.0	18.43
663.0	14.96
664.0	16.65
665.0	18.42
666.0	16.83
667.0	12.53
668.0	17.23
669.0	15.53
670.0	14.21
671.0	14.83
672.0	11.16
673.0	10.56
674.0	10.47
675.0	13.91
676.0	11.51
677.0	14.17
678.0	9.201
679.0	7.378
680.0	9.018
681.0	10.75
682.0	9.656
683.0	11.57
684.0	9.671
685.0	7.346
686.0	6.843
687.0	7.227
688.0	8.318
689.0	6.092
690.0	5.297
691.0	6.957
692.0	13.46
693.0	7.255
694.0	7.334
695.0	7.945
696.0	8.083
697.0	8.054
698.0	7.092
699.0	5.960
700.0	4.705
701.0	8.020
702.0	8.187
703.0	6.185
704.0	5.532
705.0	10.71
706.0	3.888
707.0	9.183
708.0	6.432
709.0	6.203
710.0	6.712
711.0	5.272
712.0	5.117
713.0	3.030
714.0	5.279
715.0	8.931
716.0	7.081
717.0	5.006
718.0	6.124
719.0	3.451
720.0	2.996
721.0	6.143
722.0	5.397
723.0	7.867
724.0	5.387
725.0	3.695
726.0	6.267
727.0	3.959
728.0	2.321
729.0	6.824
730.0	5.540
731.0	3.937
732.0	3.309
733.0	4.126
734.0	1.420
735.0	4.153
736.0	5.626
737.0	6.704
738.0	2.430
739.0	4.443
740.0	5.157
741.0	3.713
742.0	5.461
743.0	3.775
744.0	5.837
745.0	5.533
746.0	6.067
747.0	7.388
748.0	6.208
749.0	6.276
750.0	6.789
751.0	3.053
752.0	2.011
753.0	4.528
754.0	4.662
755.0	7.741
756.0	4.228
757.0	0.523
758.0	3.583
759.0	4.957
760.0	4.509
761.0	0.257
762.0	6.805
763.0	5.863
764.0	3.902
765.0	2.453
766.0	2.738
767.0	3.627
768.0	3.658
769.0	2.802
770.0	2.904
771.0	5.227
772.0	7.625
773.0	5.181
774.0	3.905
775.0	4.244
776.0	4.239
777.0	2.118
778.0	2.317
779.0	2.780
780.0	5.695

Sample:	'wa-10(EM)
File name:	40.FDS
Run Date:	'15:55:03, 07/11/2024
Operator:	WXH
Comment:	'

Instrument
Model:	F-4600 FL Spectrophotometer
Serial Number:	3080-002
ROM Version:	5J24000 02

Instrument Parameters
Measurement type:	Wavelength scan
Scan mode:	Emission
Data mode:	Fluorescence
EX WL:	460.0 nm
EM  Start WL:	480.0 nm
EM  End WL:	780.0 nm
Scan speed:	1200 nm/min
Delay:	0.0 s
EX Slit:	2.5 nm
EM Slit:	2.5 nm
PMT Voltage:	600 V
Response:	Auto 
Corrected spectra:	Off
Shutter control:	On

Peak integration
Integration method:	Rectangular
Sensitivity:	1
Threshold:	1.000

Peaks
No.	Valley(nm)	Valley(Data)
1	484.6	62.25
2	514.6	356.6
3	519.0	360.5
4	523.0	374.1
5	526.4	361.5
6	532.2	319.4
7	535.6	311.3
8	538.4	312.0
9	543.4	290.2
10	545.4	289.8
11	550.2	292.1
12	554.4	272.1
13	557.2	250.6
14	562.2	240.2
15	569.0	210.1
16	572.4	183.3
17	578.2	162.5
18	582.8	152.8
19	585.8	137.3
20	589.6	133.7
21	591.8	117.4
22	599.4	92.10
23	601.6	96.92
24	603.4	89.93
25	607.2	84.72
26	612.2	72.73
27	613.8	67.64
28	615.4	68.10
29	618.6	57.12
30	620.8	60.14
31	627.2	45.03
32	630.2	46.35
33	637.2	34.22
34	641.6	25.18
35	646.6	19.87
36	651.0	18.19
37	655.0	21.05
38	661.0	17.69
39	664.0	13.37
40	667.4	9.094
41	673.0	8.693
42	674.8	12.13
43	677.4	8.463
44	681.6	8.764
45	685.8	5.230
46	689.8	5.643
47	695.6	6.426
48	698.8	2.582
49	703.2	5.494
50	705.8	5.259
51	710.4	4.233
52	713.2	4.384
53	716.4	2.876
54	719.8	3.696
55	723.0	3.201
56	727.6	2.343
57	730.6	2.961
58	733.0	2.083
59	737.2	1.935
60	741.4	1.869
61	746.8	2.232
62	749.8	2.034
63	753.6	3.241
64	757.6	2.739
65	761.2	2.344
66	762.2	2.049
67	764.6	1.513
68	770.0	1.028
69	772.6	2.311
70	775.2	2.484
71	777.0	1.597

Data Points
nm	Data
480.0	57.38
481.0	64.23
482.0	66.01
483.0	67.35
484.0	72.12
485.0	67.08
486.0	69.29
487.0	77.52
488.0	73.03
489.0	76.63
490.0	82.08
491.0	98.42
492.0	107.5
493.0	110.2
494.0	120.0
495.0	133.0
496.0	153.5
497.0	144.9
498.0	175.9
499.0	195.2
500.0	198.7
501.0	217.3
502.0	228.9
503.0	235.6
504.0	254.5
505.0	282.3
506.0	300.5
507.0	316.7
508.0	321.5
509.0	322.4
510.0	344.7
511.0	344.9
512.0	373.1
513.0	360.0
514.0	391.7
515.0	364.3
516.0	371.9
517.0	402.1
518.0	385.5
519.0	360.5
520.0	369.9
521.0	383.6
522.0	394.9
523.0	374.1
524.0	383.5
525.0	383.8
526.0	368.0
527.0	361.6
528.0	374.2
529.0	364.4
530.0	348.0
531.0	337.4
532.0	329.6
533.0	337.3
534.0	337.4
535.0	318.6
536.0	332.7
537.0	354.5
538.0	319.3
539.0	341.4
540.0	339.3
541.0	321.3
542.0	317.5
543.0	310.3
544.0	294.5
545.0	315.8
546.0	299.2
547.0	309.2
548.0	320.1
549.0	311.2
550.0	294.3
551.0	296.3
552.0	296.6
553.0	275.4
554.0	276.0
555.0	278.9
556.0	276.1
557.0	251.3
558.0	264.6
559.0	280.8
560.0	279.8
561.0	249.9
562.0	246.0
563.0	254.2
564.0	256.2
565.0	235.7
566.0	234.0
567.0	222.9
568.0	221.5
569.0	210.1
570.0	219.3
571.0	203.8
572.0	200.1
573.0	190.3
574.0	199.6
575.0	184.8
576.0	167.9
577.0	175.7
578.0	166.8
579.0	172.2
580.0	172.6
581.0	160.4
582.0	161.4
583.0	155.0
584.0	153.8
585.0	145.8
586.0	142.2
587.0	142.3
588.0	142.9
589.0	141.1
590.0	136.6
591.0	135.7
592.0	124.3
593.0	133.2
594.0	128.7
595.0	104.9
596.0	106.8
597.0	107.9
598.0	106.4
599.0	94.30
600.0	106.9
601.0	102.4
602.0	102.2
603.0	97.25
604.0	100.3
605.0	104.0
606.0	102.0
607.0	89.89
608.0	101.2
609.0	84.08
610.0	83.39
611.0	80.25
612.0	73.76
613.0	84.02
614.0	73.30
615.0	74.01
616.0	69.50
617.0	74.45
618.0	74.24
619.0	62.30
620.0	60.56
621.0	66.42
622.0	65.65
623.0	57.56
624.0	56.05
625.0	55.23
626.0	49.13
627.0	50.29
628.0	55.66
629.0	45.92
630.0	47.87
631.0	47.34
632.0	48.61
633.0	37.95
634.0	38.69
635.0	36.05
636.0	39.17
637.0	36.60
638.0	33.86
639.0	41.43
640.0	32.72
641.0	28.90
642.0	29.35
643.0	28.29
644.0	31.63
645.0	28.66
646.0	30.05
647.0	20.66
648.0	23.13
649.0	32.18
650.0	27.99
651.0	18.19
652.0	22.60
653.0	25.61
654.0	23.69
655.0	21.05
656.0	25.80
657.0	22.43
658.0	20.86
659.0	24.64
660.0	20.04
661.0	17.69
662.0	18.22
663.0	23.88
664.0	13.37
665.0	17.94
666.0	13.40
667.0	11.61
668.0	11.55
669.0	12.17
670.0	15.54
671.0	17.11
672.0	10.99
673.0	8.693
674.0	14.76
675.0	14.10
676.0	13.59
677.0	9.443
678.0	12.19
679.0	12.66
680.0	11.34
681.0	11.34
682.0	11.32
683.0	16.63
684.0	12.22
685.0	10.91
686.0	6.575
687.0	6.934
688.0	10.12
689.0	10.70
690.0	8.166
691.0	8.891
692.0	11.81
693.0	10.24
694.0	9.866
695.0	9.230
696.0	6.973
697.0	8.959
698.0	7.458
699.0	4.137
700.0	9.970
701.0	10.38
702.0	10.94
703.0	6.772
704.0	6.496
705.0	6.617
706.0	5.913
707.0	7.934
708.0	7.073
709.0	6.532
710.0	5.282
711.0	8.748
712.0	5.456
713.0	5.285
714.0	5.317
715.0	7.217
716.0	4.184
717.0	6.356
718.0	10.13
719.0	5.735
720.0	4.504
721.0	5.042
722.0	7.104
723.0	3.201
724.0	4.161
725.0	5.115
726.0	7.411
727.0	2.802
728.0	3.540
729.0	5.425
730.0	5.907
731.0	3.537
732.0	5.739
733.0	2.083
734.0	3.981
735.0	7.838
736.0	4.237
737.0	3.405
738.0	6.462
739.0	4.613
740.0	2.898
741.0	3.015
742.0	3.334
743.0	2.673
744.0	6.254
745.0	6.196
746.0	3.917
747.0	2.820
748.0	5.619
749.0	4.153
750.0	2.679
751.0	2.244
752.0	5.268
753.0	4.971
754.0	5.441
755.0	4.272
756.0	4.413
757.0	5.013
758.0	4.316
759.0	6.257
760.0	3.645
761.0	2.682
762.0	4.258
763.0	4.609
764.0	2.702
765.0	4.264
766.0	4.422
767.0	4.239
768.0	5.619
769.0	4.386
770.0	1.028
771.0	3.334
772.0	5.509
773.0	2.893
774.0	4.681
775.0	3.364
776.0	3.972
777.0	1.597
778.0	3.847
779.0	3.539
780.0	3.597

Sample:	'wa-11(EM)
File name:	40.FDS
Run Date:	'15:55:33, 07/11/2024
Operator:	WXH
Comment:	'

Instrument
Model:	F-4600 FL Spectrophotometer
Serial Number:	3080-002
ROM Version:	5J24000 02

Instrument Parameters
Measurement type:	Wavelength scan
Scan mode:	Emission
Data mode:	Fluorescence
EX WL:	460.0 nm
EM  Start WL:	480.0 nm
EM  End WL:	780.0 nm
Scan speed:	1200 nm/min
Delay:	0.0 s
EX Slit:	2.5 nm
EM Slit:	2.5 nm
PMT Voltage:	600 V
Response:	Auto 
Corrected spectra:	Off
Shutter control:	On

Peak integration
Integration method:	Rectangular
Sensitivity:	1
Threshold:	1.000

Peaks
No.	Valley(nm)	Valley(Data)
1	481.8	61.68
2	485.8	69.76
3	489.8	86.49
4	493.2	112.3
5	495.8	138.3
6	511.6	348.8
7	514.2	364.5
8	522.2	358.3
9	530.2	342.7
10	534.0	323.6
11	536.2	314.0
12	539.8	303.2
13	543.8	302.1
14	546.6	295.2
15	549.0	290.2
16	551.6	289.9
17	554.2	266.8
18	556.0	280.3
19	560.0	243.2
20	565.6	219.2
21	569.8	208.5
22	574.2	175.3
23	577.6	171.0
24	583.8	142.7
25	587.4	125.7
26	591.0	123.7
27	593.2	113.6
28	595.2	108.3
29	598.8	101.2
30	602.0	91.22
31	604.4	90.79
32	610.0	77.65
33	613.6	69.97
34	616.8	59.91
35	619.8	55.60
36	628.6	40.38
37	632.6	38.99
38	635.6	32.57
39	637.6	34.04
40	640.8	29.70
41	644.2	25.92
42	649.0	20.00
43	652.6	21.20
44	654.2	17.49
45	657.4	19.45
46	663.2	14.73
47	664.6	14.75
48	667.0	11.60
49	670.8	9.504
50	675.6	7.439
51	678.6	7.760
52	680.6	7.214
53	686.6	7.475
54	688.6	7.389
55	691.0	5.183
56	694.0	7.169
57	696.4	5.655
58	698.8	4.898
59	702.8	4.655
60	705.4	4.988
61	708.6	4.919
62	712.6	3.165
63	715.2	3.785
64	719.0	3.025
65	722.8	3.857
66	724.8	3.225
67	726.8	3.802
68	731.4	3.017
69	734.8	1.209
70	739.6	2.177
71	741.4	1.004
72	744.6	1.745
73	749.0	1.078
74	751.4	2.097
75	753.8	1.663
76	756.8	3.467
77	759.2	3.362
78	762.2	3.333
79	764.4	3.377
80	766.6	2.633
81	771.4	2.185
82	777.4	0.823

Data Points
nm	Data
480.0	70.35
481.0	69.95
482.0	65.79
483.0	66.23
484.0	65.41
485.0	75.19
486.0	71.32
487.0	77.61
488.0	81.03
489.0	99.02
490.0	86.54
491.0	99.58
492.0	115.5
493.0	117.1
494.0	131.4
495.0	147.2
496.0	140.5
497.0	152.0
498.0	175.1
499.0	180.9
500.0	206.0
501.0	215.9
502.0	227.1
503.0	267.5
504.0	264.2
505.0	276.0
506.0	281.6
507.0	322.7
508.0	304.4
509.0	329.0
510.0	338.7
511.0	361.4
512.0	358.7
513.0	377.1
514.0	365.5
515.0	383.3
516.0	381.1
517.0	395.6
518.0	401.8
519.0	397.2
520.0	386.4
521.0	377.0
522.0	371.2
523.0	391.6
524.0	388.9
525.0	393.3
526.0	391.0
527.0	366.9
528.0	360.4
529.0	351.8
530.0	353.9
531.0	350.1
532.0	362.6
533.0	343.6
534.0	323.6
535.0	335.9
536.0	322.8
537.0	318.5
538.0	334.2
539.0	321.1
540.0	314.7
541.0	327.8
542.0	325.8
543.0	317.3
544.0	310.8
545.0	306.0
546.0	311.7
547.0	321.8
548.0	314.8
549.0	290.2
550.0	298.9
551.0	294.9
552.0	300.0
553.0	303.1
554.0	277.5
555.0	309.7
556.0	280.3
557.0	290.5
558.0	273.9
559.0	261.9
560.0	243.2
561.0	263.7
562.0	256.0
563.0	254.7
564.0	233.3
565.0	219.7
566.0	228.3
567.0	242.1
568.0	220.4
569.0	222.3
570.0	224.4
571.0	219.9
572.0	223.5
573.0	200.9
574.0	182.7
575.0	183.4
576.0	182.8
577.0	184.7
578.0	171.5
579.0	170.1
580.0	168.7
581.0	167.3
582.0	161.4
583.0	150.0
584.0	153.9
585.0	149.2
586.0	150.6
587.0	131.9
588.0	136.2
589.0	132.1
590.0	128.0
591.0	123.7
592.0	132.6
593.0	120.7
594.0	126.1
595.0	111.5
596.0	119.4
597.0	117.0
598.0	110.5
599.0	104.0
600.0	113.1
601.0	101.2
602.0	91.22
603.0	105.7
604.0	99.93
605.0	104.1
606.0	101.2
607.0	95.75
608.0	90.81
609.0	90.73
610.0	77.65
611.0	84.07
612.0	88.22
613.0	77.30
614.0	79.32
615.0	75.38
616.0	70.99
617.0	63.70
618.0	63.92
619.0	63.01
620.0	56.75
621.0	61.62
622.0	62.50
623.0	54.92
624.0	57.36
625.0	53.29
626.0	56.22
627.0	49.72
628.0	44.01
629.0	47.90
630.0	50.75
631.0	41.83
632.0	43.59
633.0	39.92
634.0	40.56
635.0	38.06
636.0	33.31
637.0	38.61
638.0	35.57
639.0	40.60
640.0	33.53
641.0	35.45
642.0	32.56
643.0	37.05
644.0	27.52
645.0	33.14
646.0	28.45
647.0	27.88
648.0	22.24
649.0	20.00
650.0	22.97
651.0	25.74
652.0	24.63
653.0	24.93
654.0	21.26
655.0	24.00
656.0	27.37
657.0	20.29
658.0	23.10
659.0	21.17
660.0	19.71
661.0	17.17
662.0	17.12
663.0	15.55
664.0	20.61
665.0	16.48
666.0	18.72
667.0	11.60
668.0	15.39
669.0	13.73
670.0	14.77
671.0	11.95
672.0	14.55
673.0	16.30
674.0	13.44
675.0	9.995
676.0	9.341
677.0	9.613
678.0	10.28
679.0	11.25
680.0	10.22
681.0	10.26
682.0	11.55
683.0	13.77
684.0	13.42
685.0	9.373
686.0	8.108
687.0	11.54
688.0	7.589
689.0	9.776
690.0	9.098
691.0	5.183
692.0	5.755
693.0	8.042
694.0	7.169
695.0	10.57
696.0	6.747
697.0	9.350
698.0	6.932
699.0	5.881
700.0	8.303
701.0	10.30
702.0	7.463
703.0	7.608
704.0	7.536
705.0	8.058
706.0	7.035
707.0	6.939
708.0	5.607
709.0	7.281
710.0	8.007
711.0	6.335
712.0	4.814
713.0	6.313
714.0	8.437
715.0	4.376
716.0	4.796
717.0	3.759
718.0	4.368
719.0	3.025
720.0	7.288
721.0	6.770
722.0	7.136
723.0	4.119
724.0	6.563
725.0	3.398
726.0	4.470
727.0	5.501
728.0	6.173
729.0	6.076
730.0	4.128
731.0	3.334
732.0	6.549
733.0	4.262
734.0	3.460
735.0	1.715
736.0	5.032
737.0	7.157
738.0	4.111
739.0	2.706
740.0	3.451
741.0	1.349
742.0	5.485
743.0	6.762
744.0	5.963
745.0	3.788
746.0	8.904
747.0	4.856
748.0	4.670
749.0	1.078
750.0	6.073
751.0	3.122
752.0	4.542
753.0	5.134
754.0	3.461
755.0	3.663
756.0	5.004
757.0	4.793
758.0	7.339
759.0	3.536
760.0	5.748
761.0	3.989
762.0	4.113
763.0	4.509
764.0	6.111
765.0	7.126
766.0	5.308
767.0	4.236
768.0	5.345
769.0	4.593
770.0	4.832
771.0	2.237
772.0	3.784
773.0	6.354
774.0	6.147
775.0	4.100
776.0	4.578
777.0	1.036
778.0	1.943
779.0	4.808
780.0	5.875

Sample:	'wa-12(EM)
File name:	40.FDS
Run Date:	'15:56:04, 07/11/2024
Operator:	WXH
Comment:	'

Instrument
Model:	F-4600 FL Spectrophotometer
Serial Number:	3080-002
ROM Version:	5J24000 02

Instrument Parameters
Measurement type:	Wavelength scan
Scan mode:	Emission
Data mode:	Fluorescence
EX WL:	460.0 nm
EM  Start WL:	480.0 nm
EM  End WL:	780.0 nm
Scan speed:	1200 nm/min
Delay:	0.0 s
EX Slit:	2.5 nm
EM Slit:	2.5 nm
PMT Voltage:	600 V
Response:	Auto 
Corrected spectra:	Off
Shutter control:	On

Peak integration
Integration method:	Rectangular
Sensitivity:	1
Threshold:	1.000

Peaks
No.	Valley(nm)	Valley(Data)
1	512.8	348.7
2	517.2	371.2
3	520.4	351.8
4	524.4	357.1
5	527.6	341.2
6	531.4	325.2
7	535.2	320.9
8	538.2	315.4
9	540.8	304.3
10	543.2	310.1
11	546.2	299.8
12	548.8	289.6
13	551.8	283.5
14	553.8	275.3
15	558.6	251.1
16	562.0	241.3
17	566.0	218.8
18	578.6	163.9
19	580.2	152.4
20	584.6	143.9
21	588.6	130.1
22	590.6	123.2
23	592.6	105.2
24	595.0	105.7
25	598.8	97.97
26	601.4	87.73
27	603.0	93.43
28	604.8	90.91
29	610.6	70.94
30	613.6	68.28
31	620.2	53.51
32	622.4	49.49
33	624.0	50.68
34	626.8	43.01
35	629.8	40.23
36	632.4	40.40
37	638.2	30.13
38	641.2	30.22
39	646.2	21.10
40	648.0	20.74
41	650.8	22.05
42	656.8	17.94
43	661.6	15.18
44	667.0	11.40
45	669.8	10.34
46	676.6	9.239
47	679.2	7.497
48	681.8	6.605
49	685.6	6.063
50	687.4	6.111
51	691.0	5.882
52	694.2	5.683
53	698.2	5.788
54	701.6	5.376
55	706.8	3.534
56	709.0	5.264
57	712.8	4.087
58	715.0	5.633
59	717.8	4.643
60	719.6	2.044
61	721.6	3.132
62	726.2	3.432
63	730.0	2.488
64	732.2	2.262
65	735.2	1.835
66	737.6	3.950
67	740.0	3.092
68	743.8	1.928
69	745.8	2.397
70	751.8	1.172
71	754.6	3.481
72	761.4	2.427
73	765.8	1.934
74	772.8	1.737
75	776.8	3.728

Data Points
nm	Data
480.0	80.56
481.0	65.68
482.0	69.11
483.0	65.62
484.0	75.39
485.0	71.80
486.0	77.86
487.0	82.15
488.0	77.66
489.0	88.16
490.0	94.79
491.0	90.69
492.0	99.48
493.0	121.3
494.0	121.1
495.0	136.2
496.0	140.8
497.0	169.6
498.0	177.1
499.0	198.6
500.0	207.5
501.0	226.4
502.0	223.1
503.0	265.5
504.0	251.7
505.0	283.5
506.0	299.1
507.0	309.1
508.0	325.9
509.0	331.4
510.0	343.6
511.0	349.9
512.0	362.3
513.0	360.9
514.0	356.0
515.0	389.1
516.0	369.6
517.0	379.1
518.0	384.0
519.0	378.5
520.0	371.1
521.0	382.8
522.0	390.2
523.0	368.1
524.0	376.6
525.0	375.4
526.0	379.7
527.0	371.4
528.0	354.3
529.0	359.3
530.0	344.5
531.0	350.2
532.0	373.3
533.0	349.4
534.0	349.5
535.0	327.4
536.0	328.7
537.0	348.1
538.0	319.0
539.0	336.6
540.0	319.5
541.0	307.6
542.0	306.3
543.0	319.0
544.0	318.4
545.0	314.8
546.0	307.3
547.0	305.3
548.0	307.2
549.0	296.4
550.0	297.7
551.0	293.6
552.0	283.5
553.0	290.7
554.0	280.7
555.0	277.3
556.0	277.8
557.0	269.5
558.0	267.6
559.0	259.5
560.0	264.6
561.0	258.9
562.0	241.3
563.0	259.4
564.0	250.8
565.0	225.7
566.0	218.8
567.0	225.8
568.0	226.4
569.0	219.0
570.0	217.9
571.0	220.5
572.0	212.0
573.0	215.7
574.0	184.9
575.0	195.8
576.0	186.0
577.0	176.7
578.0	175.2
579.0	165.2
580.0	166.5
581.0	173.5
582.0	169.8
583.0	165.2
584.0	152.7
585.0	156.6
586.0	138.5
587.0	139.2
588.0	143.7
589.0	132.0
590.0	133.5
591.0	129.8
592.0	130.0
593.0	113.3
594.0	110.0
595.0	105.7
596.0	121.6
597.0	115.8
598.0	104.9
599.0	98.90
600.0	101.0
601.0	94.08
602.0	99.79
603.0	93.43
604.0	99.70
605.0	97.73
606.0	96.12
607.0	94.30
608.0	89.26
609.0	87.16
610.0	84.34
611.0	74.96
612.0	86.25
613.0	70.24
614.0	74.35
615.0	79.91
616.0	75.40
617.0	72.58
618.0	65.56
619.0	60.86
620.0	58.83
621.0	64.09
622.0	54.28
623.0	54.29
624.0	50.68
625.0	59.47
626.0	49.90
627.0	48.12
628.0	49.51
629.0	43.78
630.0	41.58
631.0	49.29
632.0	43.60
633.0	43.26
634.0	43.45
635.0	40.90
636.0	38.95
637.0	32.29
638.0	33.80
639.0	31.57
640.0	45.64
641.0	31.17
642.0	34.75
643.0	30.81
644.0	34.88
645.0	29.26
646.0	23.85
647.0	25.43
648.0	20.74
649.0	23.77
650.0	27.00
651.0	22.59
652.0	24.77
653.0	25.95
654.0	21.89
655.0	19.78
656.0	20.48
657.0	19.36
658.0	25.40
659.0	20.82
660.0	18.58
661.0	17.08
662.0	15.55
663.0	17.24
664.0	18.16
665.0	18.78
666.0	15.38
667.0	11.40
668.0	14.60
669.0	13.77
670.0	10.94
671.0	15.79
672.0	18.11
673.0	16.51
674.0	15.68
675.0	10.79
676.0	17.36
677.0	12.75
678.0	12.28
679.0	9.270
680.0	9.049
681.0	9.491
682.0	10.56
683.0	13.39
684.0	11.58
685.0	6.866
686.0	12.35
687.0	9.193
688.0	9.575
689.0	9.801
690.0	11.17
691.0	5.882
692.0	10.56
693.0	11.16
694.0	6.274
695.0	10.18
696.0	9.788
697.0	8.859
698.0	6.150
699.0	7.882
700.0	7.657
701.0	7.922
702.0	7.399
703.0	6.622
704.0	8.442
705.0	7.611
706.0	5.326
707.0	3.864
708.0	8.879
709.0	5.264
710.0	7.913
711.0	7.793
712.0	4.513
713.0	7.270
714.0	6.839
715.0	5.633
716.0	6.515
717.0	7.309
718.0	5.874
719.0	5.967
720.0	6.207
721.0	6.659
722.0	3.626
723.0	5.459
724.0	6.610
725.0	4.787
726.0	5.322
727.0	7.156
728.0	5.678
729.0	2.687
730.0	2.488
731.0	7.889
732.0	3.592
733.0	5.245
734.0	4.061
735.0	2.133
736.0	3.613
737.0	5.399
738.0	4.637
739.0	6.476
740.0	3.092
741.0	3.830
742.0	5.166
743.0	4.338
744.0	3.762
745.0	5.388
746.0	3.540
747.0	6.484
748.0	5.612
749.0	5.852
750.0	5.281
751.0	2.991
752.0	2.047
753.0	4.057
754.0	5.058
755.0	3.629
756.0	3.858
757.0	3.854
758.0	4.692
759.0	4.975
760.0	5.152
761.0	3.991
762.0	2.633
763.0	3.354
764.0	4.087
765.0	4.017
766.0	3.792
767.0	3.501
768.0	3.653
769.0	4.963
770.0	5.384
771.0	5.778
772.0	6.341
773.0	2.853
774.0	4.514
775.0	2.787
776.0	6.027
777.0	5.846
778.0	4.122
779.0	5.598
780.0	5.615

Sample:	'wa-13(EM)
File name:	40.FDS
Run Date:	'15:56:34, 07/11/2024
Operator:	WXH
Comment:	'

Instrument
Model:	F-4600 FL Spectrophotometer
Serial Number:	3080-002
ROM Version:	5J24000 02

Instrument Parameters
Measurement type:	Wavelength scan
Scan mode:	Emission
Data mode:	Fluorescence
EX WL:	460.0 nm
EM  Start WL:	480.0 nm
EM  End WL:	780.0 nm
Scan speed:	1200 nm/min
Delay:	0.0 s
EX Slit:	2.5 nm
EM Slit:	2.5 nm
PMT Voltage:	600 V
Response:	Auto 
Corrected spectra:	Off
Shutter control:	On

Peak integration
Integration method:	Rectangular
Sensitivity:	1
Threshold:	1.000

Peaks
No.	Valley(nm)	Valley(Data)
1	485.6	62.90
2	489.2	79.58
3	492.0	97.19
4	495.6	127.2
5	514.0	352.7
6	518.6	361.4
7	524.2	357.5
8	529.2	331.2
9	532.4	325.8
10	534.6	329.0
11	542.0	304.6
12	546.4	296.5
13	549.6	284.1
14	553.4	279.0
15	558.4	251.4
16	568.8	213.9
17	572.8	190.7
18	575.2	174.0
19	582.2	151.7
20	587.0	133.4
21	591.2	117.8
22	592.8	111.5
23	594.8	109.5
24	597.2	102.5
25	600.2	101.4
26	609.6	73.20
27	618.0	63.31
28	621.6	53.80
29	624.2	49.83
30	627.4	41.26
31	630.6	40.57
32	635.6	32.01
33	639.0	31.67
34	641.8	25.07
35	645.6	25.70
36	647.0	22.56
37	653.4	21.45
38	655.6	15.01
39	658.6	17.91
40	661.4	13.50
41	663.4	14.72
42	665.6	10.35
43	669.8	13.55
44	672.6	12.37
45	676.6	10.72
46	681.0	8.445
47	684.6	8.900
48	687.4	6.563
49	689.0	8.011
50	691.8	6.100
51	694.8	4.340
52	699.0	4.703
53	700.6	4.230
54	703.2	6.606
55	705.2	4.734
56	707.4	3.815
57	711.6	5.787
58	716.2	4.804
59	718.4	3.608
60	721.2	3.909
61	725.2	3.605
62	728.8	4.245
63	735.4	3.351
64	739.6	2.534
65	745.2	4.450
66	749.0	3.100
67	755.6	1.260
68	759.0	2.859
69	762.2	3.477
70	764.0	1.475
71	767.2	2.038
72	772.2	3.512
73	776.0	2.406
74	780.0	3.559

Data Points
nm	Data
480.0	89.28
481.0	69.86
482.0	62.34
483.0	71.74
484.0	70.61
485.0	65.37
486.0	67.35
487.0	68.78
488.0	76.45
489.0	90.45
490.0	86.37
491.0	106.8
492.0	97.19
493.0	106.2
494.0	120.9
495.0	143.1
496.0	131.9
497.0	156.6
498.0	165.6
499.0	183.4
500.0	198.8
501.0	214.2
502.0	237.3
503.0	227.1
504.0	274.8
505.0	277.2
506.0	305.9
507.0	310.6
508.0	306.6
509.0	328.1
510.0	331.4
511.0	338.0
512.0	365.0
513.0	369.0
514.0	352.7
515.0	384.2
516.0	382.6
517.0	385.5
518.0	378.3
519.0	384.1
520.0	395.2
521.0	385.8
522.0	383.0
523.0	364.9
524.0	363.6
525.0	370.4
526.0	353.0
527.0	358.2
528.0	351.2
529.0	337.9
530.0	343.1
531.0	334.7
532.0	334.2
533.0	342.8
534.0	356.7
535.0	343.8
536.0	344.7
537.0	335.3
538.0	337.6
539.0	330.5
540.0	337.9
541.0	330.9
542.0	304.6
543.0	322.7
544.0	327.5
545.0	312.5
546.0	304.3
547.0	298.0
548.0	317.9
549.0	295.5
550.0	291.6
551.0	293.3
552.0	285.0
553.0	291.5
554.0	297.5
555.0	298.5
556.0	293.1
557.0	271.7
558.0	256.6
559.0	271.7
560.0	276.3
561.0	274.3
562.0	263.7
563.0	259.9
564.0	252.6
565.0	242.1
566.0	238.7
567.0	227.1
568.0	222.3
569.0	214.5
570.0	218.4
571.0	210.7
572.0	203.2
573.0	193.1
574.0	206.2
575.0	176.7
576.0	186.8
577.0	182.3
578.0	186.0
579.0	184.5
580.0	174.0
581.0	179.7
582.0	156.0
583.0	157.2
584.0	160.6
585.0	151.7
586.0	151.2
587.0	133.4
588.0	143.0
589.0	139.0
590.0	128.4
591.0	124.8
592.0	133.3
593.0	114.6
594.0	125.1
595.0	117.4
596.0	121.6
597.0	103.4
598.0	112.2
599.0	102.0
600.0	103.1
601.0	105.2
602.0	107.7
603.0	91.38
604.0	95.28
605.0	89.93
606.0	88.44
607.0	91.70
608.0	78.42
609.0	79.71
610.0	74.61
611.0	83.24
612.0	76.84
613.0	75.95
614.0	74.10
615.0	70.46
616.0	72.62
617.0	65.06
618.0	63.31
619.0	71.32
620.0	66.45
621.0	59.82
622.0	59.59
623.0	60.00
624.0	53.05
625.0	50.40
626.0	54.31
627.0	48.67
628.0	48.48
629.0	47.31
630.0	41.78
631.0	40.97
632.0	46.92
633.0	46.49
634.0	37.75
635.0	34.53
636.0	37.91
637.0	39.03
638.0	37.92
639.0	31.67
640.0	35.70
641.0	30.47
642.0	29.04
643.0	34.02
644.0	28.31
645.0	28.23
646.0	29.01
647.0	22.56
648.0	24.92
649.0	26.39
650.0	26.99
651.0	24.38
652.0	21.17
653.0	22.33
654.0	24.86
655.0	20.60
656.0	21.83
657.0	21.92
658.0	22.05
659.0	25.22
660.0	23.28
661.0	17.69
662.0	18.29
663.0	15.54
664.0	19.16
665.0	16.82
666.0	13.98
667.0	20.75
668.0	19.27
669.0	16.49
670.0	15.12
671.0	12.89
672.0	12.58
673.0	13.57
674.0	14.87
675.0	14.04
676.0	14.85
677.0	12.44
678.0	16.03
679.0	14.54
680.0	10.71
681.0	8.445
682.0	14.97
683.0	15.99
684.0	13.26
685.0	9.384
686.0	11.08
687.0	8.159
688.0	8.190
689.0	8.011
690.0	11.07
691.0	8.932
692.0	7.030
693.0	8.716
694.0	7.531
695.0	6.211
696.0	6.285
697.0	8.030
698.0	8.541
699.0	4.703
700.0	7.604
701.0	8.090
702.0	10.06
703.0	7.161
704.0	8.436
705.0	5.628
706.0	6.721
707.0	7.269
708.0	9.754
709.0	7.816
710.0	8.687
711.0	7.312
712.0	7.543
713.0	6.586
714.0	7.120
715.0	5.097
716.0	5.381
717.0	8.872
718.0	5.773
719.0	5.084
720.0	10.02
721.0	6.344
722.0	7.292
723.0	7.163
724.0	5.003
725.0	4.272
726.0	6.359
727.0	7.905
728.0	4.644
729.0	5.329
730.0	8.343
731.0	7.702
732.0	6.462
733.0	8.878
734.0	4.270
735.0	3.472
736.0	3.823
737.0	5.027
738.0	5.581
739.0	4.560
740.0	3.899
741.0	4.187
742.0	2.850
743.0	4.836
744.0	5.712
745.0	6.476
746.0	6.782
747.0	5.100
748.0	4.410
749.0	3.100
750.0	4.342
751.0	4.544
752.0	3.703
753.0	3.007
754.0	3.078
755.0	2.942
756.0	1.642
757.0	6.076
758.0	4.313
759.0	2.859
760.0	3.926
761.0	6.601
762.0	5.615
763.0	5.965
764.0	1.475
765.0	4.513
766.0	3.921
767.0	2.513
768.0	8.542
769.0	5.941
770.0	5.898
771.0	6.914
772.0	3.771
773.0	3.126
774.0	5.611
775.0	7.586
776.0	2.406
777.0	5.386
778.0	5.604
779.0	3.654
780.0	3.559

Sample:	'wa-14(EM)
File name:	40.FDS
Run Date:	'15:57:04, 07/11/2024
Operator:	WXH
Comment:	'

Instrument
Model:	F-4600 FL Spectrophotometer
Serial Number:	3080-002
ROM Version:	5J24000 02

Instrument Parameters
Measurement type:	Wavelength scan
Scan mode:	Emission
Data mode:	Fluorescence
EX WL:	460.0 nm
EM  Start WL:	480.0 nm
EM  End WL:	780.0 nm
Scan speed:	1200 nm/min
Delay:	0.0 s
EX Slit:	2.5 nm
EM Slit:	2.5 nm
PMT Voltage:	600 V
Response:	Auto 
Corrected spectra:	Off
Shutter control:	On

Peak integration
Integration method:	Rectangular
Sensitivity:	1
Threshold:	1.000

Peaks
No.	Valley(nm)	Valley(Data)
1	482.4	65.57
2	484.0	63.76
3	488.2	71.19
4	498.8	169.3
5	513.8	344.8
6	516.8	366.2
7	520.4	379.4
8	526.2	350.8
9	530.2	348.4
10	533.8	327.8
11	539.4	321.1
12	544.0	294.6
13	547.2	301.7
14	550.6	282.5
15	553.2	280.6
16	556.0	270.0
17	559.8	246.1
18	567.2	216.0
19	572.0	193.2
20	578.8	165.4
21	588.2	128.6
22	590.4	111.5
23	593.4	110.2
24	597.6	97.54
25	601.6	87.18
26	605.2	83.92
27	608.2	81.54
28	613.8	67.64
29	618.4	52.20
30	625.4	44.21
31	628.8	41.32
32	630.8	41.68
33	634.0	35.20
34	640.4	27.28
35	644.2	28.69
36	649.4	21.30
37	653.0	18.41
38	656.2	20.28
39	665.2	12.36
40	666.8	12.56
41	671.6	9.519
42	673.8	10.84
43	678.0	9.019
44	680.8	9.072
45	684.6	7.818
46	687.0	6.788
47	691.6	7.257
48	694.4	5.392
49	696.6	5.325
50	700.0	4.268
51	705.4	5.634
52	710.2	3.896
53	713.2	3.109
54	716.8	3.642
55	719.0	2.480
56	724.0	2.576
57	726.0	3.790
58	728.0	2.315
59	731.8	4.328
60	734.6	3.611
61	739.4	2.804
62	743.0	0.500
63	747.0	3.163
64	750.2	1.731
65	754.0	1.456
66	760.4	0.427
67	763.4	2.106
68	765.0	3.722
69	768.4	0.442
70	770.2	2.079
71	774.6	3.177
72	778.4	1.339

Data Points
nm	Data
480.0	58.99
481.0	63.94
482.0	73.70
483.0	68.44
484.0	63.76
485.0	71.34
486.0	70.16
487.0	79.96
488.0	73.03
489.0	73.83
490.0	90.89
491.0	101.4
492.0	113.2
493.0	109.6
494.0	121.7
495.0	140.7
496.0	151.1
497.0	149.6
498.0	184.2
499.0	170.5
500.0	183.3
501.0	206.0
502.0	231.0
503.0	251.4
504.0	239.0
505.0	277.4
506.0	313.2
507.0	309.0
508.0	327.7
509.0	344.3
510.0	357.7
511.0	367.0
512.0	345.5
513.0	365.3
514.0	357.2
515.0	371.3
516.0	398.8
517.0	376.2
518.0	385.3
519.0	393.5
520.0	409.7
521.0	384.0
522.0	398.7
523.0	375.1
524.0	383.6
525.0	380.1
526.0	358.2
527.0	369.4
528.0	364.2
529.0	368.6
530.0	351.9
531.0	373.6
532.0	351.2
533.0	341.0
534.0	337.3
535.0	344.4
536.0	327.4
537.0	329.1
538.0	329.7
539.0	332.6
540.0	340.8
541.0	322.4
542.0	314.2
543.0	305.2
544.0	294.6
545.0	306.3
546.0	301.7
547.0	301.8
548.0	303.8
549.0	297.3
550.0	292.8
551.0	301.0
552.0	296.1
553.0	295.6
554.0	304.4
555.0	281.0
556.0	270.0
557.0	284.9
558.0	278.1
559.0	260.1
560.0	249.3
561.0	254.2
562.0	253.5
563.0	258.0
564.0	254.8
565.0	230.2
566.0	228.6
567.0	216.0
568.0	230.9
569.0	214.2
570.0	212.8
571.0	196.1
572.0	193.2
573.0	206.7
574.0	199.6
575.0	193.6
576.0	190.0
577.0	176.8
578.0	178.4
579.0	174.2
580.0	172.1
581.0	169.2
582.0	159.4
583.0	157.3
584.0	146.4
585.0	146.0
586.0	148.1
587.0	151.0
588.0	129.7
589.0	134.9
590.0	118.7
591.0	118.4
592.0	114.1
593.0	111.5
594.0	123.8
595.0	125.6
596.0	117.0
597.0	113.0
598.0	104.7
599.0	107.7
600.0	112.3
601.0	102.0
602.0	103.7
603.0	98.43
604.0	100.5
605.0	86.93
606.0	96.71
607.0	91.59
608.0	87.83
609.0	85.11
610.0	88.23
611.0	82.84
612.0	81.27
613.0	72.11
614.0	74.94
615.0	74.97
616.0	66.33
617.0	60.43
618.0	60.75
619.0	62.41
620.0	66.34
621.0	61.44
622.0	57.64
623.0	62.71
624.0	53.51
625.0	45.91
626.0	59.80
627.0	47.76
628.0	46.15
629.0	41.89
630.0	54.06
631.0	42.00
632.0	57.14
633.0	43.06
634.0	35.20
635.0	41.94
636.0	39.62
637.0	37.32
638.0	36.75
639.0	37.67
640.0	29.98
641.0	30.66
642.0	39.48
643.0	37.62
644.0	30.41
645.0	31.05
646.0	39.30
647.0	27.94
648.0	26.64
649.0	21.98
650.0	24.60
651.0	24.90
652.0	23.61
653.0	18.41
654.0	25.42
655.0	20.51
656.0	18.68
657.0	21.19
658.0	24.31
659.0	24.23
660.0	22.35
661.0	21.02
662.0	19.84
663.0	17.25
664.0	20.43
665.0	16.98
666.0	19.31
667.0	15.85
668.0	17.10
669.0	14.45
670.0	17.73
671.0	14.13
672.0	13.44
673.0	13.46
674.0	12.72
675.0	14.90
676.0	12.47
677.0	12.51
678.0	9.019
679.0	13.80
680.0	12.25
681.0	10.41
682.0	12.94
683.0	10.71
684.0	9.040
685.0	9.267
686.0	10.81
687.0	6.788
688.0	10.75
689.0	10.58
690.0	13.99
691.0	8.638
692.0	11.10
693.0	10.10
694.0	8.183
695.0	8.677
696.0	6.642
697.0	6.923
698.0	8.614
699.0	5.993
700.0	4.268
701.0	7.745
702.0	7.396
703.0	11.04
704.0	6.208
705.0	7.555
706.0	6.649
707.0	11.90
708.0	10.93
709.0	9.305
710.0	4.996
711.0	5.558
712.0	5.314
713.0	3.725
714.0	4.879
715.0	7.265
716.0	8.452
717.0	3.836
718.0	6.086
719.0	2.480
720.0	5.877
721.0	5.474
722.0	5.930
723.0	4.688
724.0	2.576
725.0	5.204
726.0	3.790
727.0	7.335
728.0	2.315
729.0	8.157
730.0	5.479
731.0	6.144
732.0	5.811
733.0	6.201
734.0	6.620
735.0	4.064
736.0	6.865
737.0	7.343
738.0	4.509
739.0	3.567
740.0	6.302
741.0	4.692
742.0	3.234
743.0	0.500
744.0	3.631
745.0	2.382
746.0	4.984
747.0	3.163
748.0	5.750
749.0	6.202
750.0	2.221
751.0	6.735
752.0	2.727
753.0	2.816
754.0	1.456
755.0	2.521
756.0	2.651
757.0	6.021
758.0	4.266
759.0	1.607
760.0	2.489
761.0	2.611
762.0	3.537
763.0	3.062
764.0	4.867
765.0	3.722
766.0	6.270
767.0	3.629
768.0	2.020
769.0	4.594
770.0	2.694
771.0	4.170
772.0	4.295
773.0	6.735
774.0	3.449
775.0	5.261
776.0	3.703
777.0	3.933
778.0	2.318
779.0	3.483
780.0	2.641

Sample:	'wa-15(EM)
File name:	40.FDS
Run Date:	'15:57:34, 07/11/2024
Operator:	WXH
Comment:	'

Instrument
Model:	F-4600 FL Spectrophotometer
Serial Number:	3080-002
ROM Version:	5J24000 02

Instrument Parameters
Measurement type:	Wavelength scan
Scan mode:	Emission
Data mode:	Fluorescence
EX WL:	460.0 nm
EM  Start WL:	480.0 nm
EM  End WL:	780.0 nm
Scan speed:	1200 nm/min
Delay:	0.0 s
EX Slit:	2.5 nm
EM Slit:	2.5 nm
PMT Voltage:	600 V
Response:	Auto 
Corrected spectra:	Off
Shutter control:	On

Peak integration
Integration method:	Rectangular
Sensitivity:	1
Threshold:	1.000

Peaks
No.	Valley(nm)	Valley(Data)
1	485.0	63.43
2	513.8	352.3
3	517.2	362.7
4	520.0	367.3
5	521.6	368.8
6	528.4	352.6
7	530.8	342.7
8	536.2	309.5
9	538.2	314.1
10	541.6	320.3
11	543.2	308.9
12	549.4	292.5
13	552.8	289.5
14	556.4	257.6
15	560.8	234.3
16	568.4	212.6
17	572.0	188.7
18	575.8	170.2
19	580.4	161.8
20	583.4	152.6
21	589.2	120.3
22	596.6	102.5
23	598.6	96.47
24	600.6	96.84
25	604.4	83.26
26	609.0	76.80
27	611.6	72.88
28	614.2	68.99
29	617.2	60.45
30	621.0	49.16
31	622.6	52.22
32	625.4	52.15
33	627.4	48.87
34	629.2	49.71
35	631.0	42.97
36	635.6	29.74
37	639.2	27.91
38	645.6	25.79
39	649.0	25.91
40	651.0	19.55
41	653.0	18.19
42	656.8	19.49
43	662.2	16.25
44	666.2	11.94
45	672.2	9.877
46	674.0	11.31
47	677.8	9.121
48	682.4	7.930
49	688.6	5.449
50	690.2	7.910
51	693.8	4.212
52	696.6	7.684
53	698.8	6.614
54	700.8	5.881
55	703.0	6.182
56	705.4	5.409
57	709.0	3.517
58	712.4	3.164
59	714.6	6.511
60	717.8	4.851
61	720.8	4.539
62	724.2	3.128
63	726.6	3.683
64	728.4	3.131
65	730.8	2.001
66	734.4	2.998
67	738.0	3.667
68	739.2	2.518
69	741.8	3.032
70	745.6	2.414
71	748.2	2.493
72	751.0	2.520
73	752.8	2.346
74	756.6	3.125
75	759.4	1.969
76	762.0	3.051
77	764.2	1.427
78	766.6	1.093
79	769.4	2.560
80	773.6	2.942
81	776.4	2.389
82	778.4	3.366

Data Points
nm	Data
480.0	57.26
481.0	60.13
482.0	60.99
483.0	58.30
484.0	68.82
485.0	63.43
486.0	67.39
487.0	77.97
488.0	81.53
489.0	78.04
490.0	101.4
491.0	97.36
492.0	113.0
493.0	121.6
494.0	133.8
495.0	138.4
496.0	143.6
497.0	157.2
498.0	172.0
499.0	192.1
500.0	213.7
501.0	219.3
502.0	240.9
503.0	248.2
504.0	260.7
505.0	264.7
506.0	294.1
507.0	311.3
508.0	303.0
509.0	330.3
510.0	343.5
511.0	364.6
512.0	368.9
513.0	373.9
514.0	353.1
515.0	367.8
516.0	409.4
517.0	375.9
518.0	382.5
519.0	381.4
520.0	367.3
521.0	384.0
522.0	371.0
523.0	369.6
524.0	387.9
525.0	381.4
526.0	380.7
527.0	363.3
528.0	353.4
529.0	354.6
530.0	360.6
531.0	348.5
532.0	350.1
533.0	357.4
534.0	321.8
535.0	334.8
536.0	311.9
537.0	329.7
538.0	324.3
539.0	333.4
540.0	330.5
541.0	332.4
542.0	327.8
543.0	317.4
544.0	326.9
545.0	327.9
546.0	313.8
547.0	305.3
548.0	297.0
549.0	303.7
550.0	316.3
551.0	296.4
552.0	298.0
553.0	297.2
554.0	309.1
555.0	282.3
556.0	270.3
557.0	271.7
558.0	273.5
559.0	266.3
560.0	264.5
561.0	238.4
562.0	255.3
563.0	251.9
564.0	255.8
565.0	246.4
566.0	252.0
567.0	217.7
568.0	221.6
569.0	214.8
570.0	217.2
571.0	190.6
572.0	188.7
573.0	206.4
574.0	210.3
575.0	191.4
576.0	181.2
577.0	186.7
578.0	177.9
579.0	175.7
580.0	168.2
581.0	171.0
582.0	169.4
583.0	158.0
584.0	156.8
585.0	155.5
586.0	155.7
587.0	143.9
588.0	139.7
589.0	125.6
590.0	128.3
591.0	125.2
592.0	127.3
593.0	120.0
594.0	116.1
595.0	111.2
596.0	106.0
597.0	114.6
598.0	116.2
599.0	98.06
600.0	108.0
601.0	103.4
602.0	97.22
603.0	95.06
604.0	86.47
605.0	86.95
606.0	88.60
607.0	84.78
608.0	87.81
609.0	76.80
610.0	84.18
611.0	78.08
612.0	78.58
613.0	73.20
614.0	72.88
615.0	80.69
616.0	79.46
617.0	66.91
618.0	72.54
619.0	61.96
620.0	61.39
621.0	49.16
622.0	54.20
623.0	55.75
624.0	54.77
625.0	55.69
626.0	52.88
627.0	51.73
628.0	61.35
629.0	50.98
630.0	52.53
631.0	42.97
632.0	48.15
633.0	54.59
634.0	40.55
635.0	36.09
636.0	35.11
637.0	36.21
638.0	35.01
639.0	28.43
640.0	32.99
641.0	34.06
642.0	39.95
643.0	37.52
644.0	29.80
645.0	28.17
646.0	28.47
647.0	31.85
648.0	26.21
649.0	25.91
650.0	26.26
651.0	19.55
652.0	20.46
653.0	18.19
654.0	24.63
655.0	20.08
656.0	21.86
657.0	19.62
658.0	21.84
659.0	23.89
660.0	18.44
661.0	18.08
662.0	16.90
663.0	18.36
664.0	17.07
665.0	11.22
666.0	12.77
667.0	13.31
668.0	20.08
669.0	20.94
670.0	17.03
671.0	17.22
672.0	10.12
673.0	15.40
674.0	11.31
675.0	11.66
676.0	16.36
677.0	9.815
678.0	10.29
679.0	11.03
680.0	16.03
681.0	14.53
682.0	8.469
683.0	9.606
684.0	16.43
685.0	10.02
686.0	11.14
687.0	10.00
688.0	9.904
689.0	10.92
690.0	8.094
691.0	10.28
692.0	8.571
693.0	6.138
694.0	6.645
695.0	9.936
696.0	9.058
697.0	9.071
698.0	8.993
699.0	9.998
700.0	6.851
701.0	9.256
702.0	9.623
703.0	6.182
704.0	7.579
705.0	7.577
706.0	6.160
707.0	8.568
708.0	6.111
709.0	3.517
710.0	7.220
711.0	7.187
712.0	5.335
713.0	6.323
714.0	8.433
715.0	7.607
716.0	6.072
717.0	6.514
718.0	6.121
719.0	6.118
720.0	5.908
721.0	5.264
722.0	4.436
723.0	6.601
724.0	4.825
725.0	3.921
726.0	3.932
727.0	5.631
728.0	4.241
729.0	6.056
730.0	4.177
731.0	5.385
732.0	5.262
733.0	5.374
734.0	3.527
735.0	3.726
736.0	4.787
737.0	7.851
738.0	3.667
739.0	4.286
740.0	5.964
741.0	5.769
742.0	3.360
743.0	5.915
744.0	5.971
745.0	4.890
746.0	3.220
747.0	2.953
748.0	4.040
749.0	8.125
750.0	5.419
751.0	2.520
752.0	4.192
753.0	2.613
754.0	7.267
755.0	6.261
756.0	4.662
757.0	4.180
758.0	6.721
759.0	4.942
760.0	2.715
761.0	5.509
762.0	3.051
763.0	6.214
764.0	3.277
765.0	3.800
766.0	5.626
767.0	5.797
768.0	3.839
769.0	3.038
770.0	4.365
771.0	3.011
772.0	5.068
773.0	4.867
774.0	3.419
775.0	4.841
776.0	3.669
777.0	4.878
778.0	6.922
779.0	3.780
780.0	7.798

Sample:	'wa-16(EM)
File name:	40.FDS
Run Date:	'15:58:05, 07/11/2024
Operator:	WXH
Comment:	'

Instrument
Model:	F-4600 FL Spectrophotometer
Serial Number:	3080-002
ROM Version:	5J24000 02

Instrument Parameters
Measurement type:	Wavelength scan
Scan mode:	Emission
Data mode:	Fluorescence
EX WL:	460.0 nm
EM  Start WL:	480.0 nm
EM  End WL:	780.0 nm
Scan speed:	1200 nm/min
Delay:	0.0 s
EX Slit:	2.5 nm
EM Slit:	2.5 nm
PMT Voltage:	600 V
Response:	Auto 
Corrected spectra:	Off
Shutter control:	On

Peak integration
Integration method:	Rectangular
Sensitivity:	1
Threshold:	1.000

Peaks
No.	Valley(nm)	Valley(Data)
1	486.2	65.57
2	505.8	277.5
3	513.4	363.3
4	514.6	364.4
5	516.8	362.6
6	518.0	370.4
7	522.2	350.2
8	529.8	345.3
9	533.0	347.7
10	535.0	328.2
11	539.4	310.7
12	542.4	300.0
13	545.2	302.9
14	548.2	298.4
15	551.4	276.4
16	553.8	278.9
17	563.2	239.8
18	566.8	201.1
19	575.2	182.5
20	581.6	151.7
21	582.8	146.4
22	586.8	127.4
23	591.2	124.9
24	596.8	105.5
25	599.4	90.60
26	607.2	78.01
27	612.0	66.65
28	617.6	61.87
29	623.0	51.39
30	626.2	47.37
31	629.8	41.32
32	631.4	39.44
33	632.8	40.34
34	638.2	28.89
35	641.4	25.54
36	644.6	25.94
37	649.6	22.11
38	659.6	15.99
39	663.0	15.37
40	667.8	12.91
41	670.8	9.722
42	674.8	9.524
43	677.8	10.57
44	678.8	9.336
45	682.6	8.639
46	684.0	7.884
47	687.8	6.272
48	692.8	3.707
49	696.2	3.325
50	698.2	7.347
51	704.2	5.631
52	707.4	3.446
53	709.8	3.884
54	712.0	3.796
55	714.2	5.639
56	716.2	2.096
57	719.4	2.645
58	722.6	3.951
59	727.6	3.432
60	729.4	4.122
61	732.6	3.887
62	736.6	3.788
63	738.4	4.076
64	747.0	3.716
65	749.4	3.127
66	756.8	1.963
67	762.4	2.984
68	764.4	3.080
69	768.6	2.197
70	774.6	1.297
71	780.0	3.172

Data Points
nm	Data
480.0	57.94
481.0	61.65
482.0	62.24
483.0	67.03
484.0	69.53
485.0	61.13
486.0	66.94
487.0	77.21
488.0	82.62
489.0	85.65
490.0	87.17
491.0	94.91
492.0	106.7
493.0	109.2
494.0	133.8
495.0	137.8
496.0	141.5
497.0	156.3
498.0	172.6
499.0	182.6
500.0	198.8
501.0	228.1
502.0	222.2
503.0	252.2
504.0	269.3
505.0	295.5
506.0	287.5
507.0	311.2
508.0	303.5
509.0	328.2
510.0	326.4
511.0	356.6
512.0	373.7
513.0	367.4
514.0	379.6
515.0	369.0
516.0	372.1
517.0	369.4
518.0	370.4
519.0	381.0
520.0	368.9
521.0	370.6
522.0	355.4
523.0	375.5
524.0	375.9
525.0	392.4
526.0	383.9
527.0	363.3
528.0	358.9
529.0	365.2
530.0	349.3
531.0	354.5
532.0	356.3
533.0	347.7
534.0	333.7
535.0	328.2
536.0	345.8
537.0	326.0
538.0	332.0
539.0	327.8
540.0	339.7
541.0	332.3
542.0	303.2
543.0	313.7
544.0	337.4
545.0	303.2
546.0	316.1
547.0	317.9
548.0	313.3
549.0	307.8
550.0	312.7
551.0	294.5
552.0	302.2
553.0	299.9
554.0	281.0
555.0	292.4
556.0	291.2
557.0	275.0
558.0	276.1
559.0	260.6
560.0	256.1
561.0	258.2
562.0	248.0
563.0	243.0
564.0	243.3
565.0	259.7
566.0	234.7
567.0	205.6
568.0	226.7
569.0	227.4
570.0	235.2
571.0	218.6
572.0	210.6
573.0	203.1
574.0	199.4
575.0	184.5
576.0	184.3
577.0	197.3
578.0	182.8
579.0	174.8
580.0	172.6
581.0	160.9
582.0	157.4
583.0	149.5
584.0	165.0
585.0	152.3
586.0	132.4
587.0	131.8
588.0	139.6
589.0	136.0
590.0	134.7
591.0	126.8
592.0	132.7
593.0	122.8
594.0	119.8
595.0	112.2
596.0	114.1
597.0	109.9
598.0	113.5
599.0	98.05
600.0	106.6
601.0	104.4
602.0	98.10
603.0	96.65
604.0	96.88
605.0	89.03
606.0	86.00
607.0	81.58
608.0	83.16
609.0	89.49
610.0	84.10
611.0	85.89
612.0	66.65
613.0	84.63
614.0	78.46
615.0	64.81
616.0	68.07
617.0	64.81
618.0	63.64
619.0	66.06
620.0	68.72
621.0	72.82
622.0	64.39
623.0	51.39
624.0	58.97
625.0	50.06
626.0	48.57
627.0	51.88
628.0	49.57
629.0	53.01
630.0	45.37
631.0	44.86
632.0	44.20
633.0	41.01
634.0	41.04
635.0	44.95
636.0	35.67
637.0	37.37
638.0	29.86
639.0	33.80
640.0	35.70
641.0	29.02
642.0	32.99
643.0	31.91
644.0	30.10
645.0	30.70
646.0	31.71
647.0	29.06
648.0	29.83
649.0	26.40
650.0	28.23
651.0	29.68
652.0	25.43
653.0	22.59
654.0	24.93
655.0	24.88
656.0	23.20
657.0	21.25
658.0	18.24
659.0	19.39
660.0	18.20
661.0	18.74
662.0	18.18
663.0	15.37
664.0	17.99
665.0	16.86
666.0	17.75
667.0	13.38
668.0	13.28
669.0	18.84
670.0	15.44
671.0	11.89
672.0	13.36
673.0	17.45
674.0	13.05
675.0	10.04
676.0	13.76
677.0	11.95
678.0	12.87
679.0	11.75
680.0	11.74
681.0	10.81
682.0	9.531
683.0	10.40
684.0	7.884
685.0	12.32
686.0	12.49
687.0	7.834
688.0	6.385
689.0	9.697
690.0	9.796
691.0	10.62
692.0	5.411
693.0	5.325
694.0	7.586
695.0	6.818
696.0	5.087
697.0	11.70
698.0	7.780
699.0	9.508
700.0	9.089
701.0	6.657
702.0	7.465
703.0	7.949
704.0	6.949
705.0	6.558
706.0	7.581
707.0	4.078
708.0	5.670
709.0	7.103
710.0	5.058
711.0	9.318
712.0	3.796
713.0	6.360
714.0	7.622
715.0	9.527
716.0	3.969
717.0	3.696
718.0	3.909
719.0	3.880
720.0	7.863
721.0	6.798
722.0	5.887
723.0	4.411
724.0	8.314
725.0	8.487
726.0	3.571
727.0	6.830
728.0	5.696
729.0	6.224
730.0	6.538
731.0	4.565
732.0	5.888
733.0	5.336
734.0	5.971
735.0	3.540
736.0	5.155
737.0	6.377
738.0	6.356
739.0	6.349
740.0	6.485
741.0	5.301
742.0	6.218
743.0	5.318
744.0	3.596
745.0	5.127
746.0	4.721
747.0	3.716
748.0	5.367
749.0	5.050
750.0	5.115
751.0	5.305
752.0	6.006
753.0	8.861
754.0	3.074
755.0	3.902
756.0	5.644
757.0	3.400
758.0	6.712
759.0	4.700
760.0	3.540
761.0	2.781
762.0	4.527
763.0	3.900
764.0	5.309
765.0	5.566
766.0	6.671
767.0	5.391
768.0	5.537
769.0	2.652
770.0	5.122
771.0	7.412
772.0	5.531
773.0	4.390
774.0	3.493
775.0	3.200
776.0	3.063
777.0	7.958
778.0	6.596
779.0	3.041
780.0	3.172

Sample:	'wa-17(EM)
File name:	40.FDS
Run Date:	'15:58:35, 07/11/2024
Operator:	WXH
Comment:	'

Instrument
Model:	F-4600 FL Spectrophotometer
Serial Number:	3080-002
ROM Version:	5J24000 02

Instrument Parameters
Measurement type:	Wavelength scan
Scan mode:	Emission
Data mode:	Fluorescence
EX WL:	460.0 nm
EM  Start WL:	480.0 nm
EM  End WL:	780.0 nm
Scan speed:	1200 nm/min
Delay:	0.0 s
EX Slit:	2.5 nm
EM Slit:	2.5 nm
PMT Voltage:	600 V
Response:	Auto 
Corrected spectra:	Off
Shutter control:	On

Peak integration
Integration method:	Rectangular
Sensitivity:	1
Threshold:	1.000

Peaks
No.	Valley(nm)	Valley(Data)
1	485.6	72.12
2	510.8	337.7
3	512.6	359.4
4	517.4	365.1
5	519.2	374.6
6	523.0	355.2
7	529.0	351.6
8	532.2	327.5
9	541.4	309.8
10	545.8	283.5
11	547.8	301.4
12	551.8	271.8
13	553.6	274.3
14	559.8	247.6
15	567.8	213.4
16	570.2	216.3
17	574.4	177.9
18	580.8	153.7
19	583.6	145.1
20	590.0	121.3
21	597.6	101.8
22	602.2	95.75
23	605.4	85.47
24	608.0	85.96
25	611.2	73.25
26	618.6	59.11
27	621.6	53.27
28	626.4	46.59
29	629.4	44.13
30	632.2	38.70
31	634.6	33.19
32	640.0	30.35
33	641.8	26.59
34	646.2	24.33
35	649.2	17.91
36	652.0	21.52
37	653.8	16.58
38	656.0	15.61
39	659.4	18.49
40	662.8	13.57
41	667.8	12.67
42	669.2	12.62
43	671.6	13.03
44	677.8	10.05
45	682.0	11.57
46	685.2	7.826
47	688.4	6.002
48	695.0	4.870
49	696.0	7.967
50	699.0	6.928
51	701.6	3.402
52	705.0	4.893
53	707.6	3.502
54	714.2	3.546
55	718.0	3.591
56	722.0	3.557
57	725.2	3.013
58	726.6	2.596
59	730.2	4.663
60	732.8	4.204
61	734.4	4.082
62	737.2	2.356
63	743.6	3.025
64	748.2	3.090
65	751.8	1.736
66	757.8	1.847
67	760.8	2.766
68	763.2	3.997
69	766.0	2.890
70	768.4	2.380
71	770.4	3.440
72	771.8	2.345
73	775.8	2.503

Data Points
nm	Data
480.0	60.07
481.0	60.56
482.0	62.03
483.0	65.08
484.0	74.06
485.0	80.01
486.0	78.64
487.0	78.80
488.0	85.79
489.0	80.60
490.0	92.15
491.0	93.78
492.0	109.1
493.0	117.1
494.0	122.8
495.0	140.5
496.0	151.8
497.0	169.3
498.0	173.0
499.0	192.9
500.0	204.3
501.0	219.6
502.0	227.9
503.0	258.7
504.0	262.3
505.0	280.7
506.0	290.0
507.0	320.6
508.0	335.5
509.0	343.1
510.0	346.1
511.0	354.6
512.0	367.9
513.0	361.0
514.0	372.5
515.0	399.9
516.0	383.1
517.0	378.3
518.0	406.5
519.0	383.3
520.0	380.1
521.0	395.4
522.0	383.5
523.0	355.2
524.0	372.6
525.0	398.9
526.0	368.8
527.0	361.5
528.0	362.5
529.0	351.6
530.0	365.0
531.0	363.0
532.0	340.3
533.0	358.2
534.0	334.3
535.0	349.7
536.0	332.0
537.0	336.1
538.0	337.9
539.0	341.5
540.0	329.4
541.0	323.7
542.0	323.8
543.0	337.6
544.0	316.7
545.0	293.0
546.0	299.1
547.0	322.3
548.0	310.2
549.0	316.0
550.0	306.2
551.0	287.3
552.0	274.0
553.0	302.4
554.0	281.8
555.0	286.3
556.0	285.7
557.0	273.7
558.0	271.7
559.0	263.5
560.0	252.0
561.0	256.0
562.0	274.5
563.0	256.1
564.0	248.0
565.0	255.1
566.0	231.2
567.0	224.3
568.0	221.2
569.0	220.7
570.0	222.3
571.0	230.5
572.0	200.0
573.0	191.3
574.0	187.8
575.0	182.0
576.0	199.6
577.0	192.5
578.0	172.1
579.0	171.7
580.0	161.1
581.0	160.2
582.0	157.3
583.0	152.7
584.0	150.9
585.0	161.3
586.0	150.3
587.0	141.1
588.0	136.2
589.0	133.5
590.0	121.3
591.0	129.8
592.0	127.5
593.0	129.0
594.0	116.7
595.0	114.6
596.0	108.6
597.0	104.6
598.0	106.6
599.0	111.9
600.0	102.3
601.0	107.0
602.0	99.38
603.0	103.1
604.0	90.63
605.0	90.52
606.0	107.7
607.0	87.43
608.0	85.96
609.0	84.56
610.0	78.53
611.0	81.63
612.0	79.26
613.0	72.05
614.0	75.77
615.0	73.07
616.0	69.12
617.0	63.03
618.0	66.03
619.0	64.20
620.0	74.02
621.0	69.50
622.0	53.80
623.0	60.06
624.0	61.21
625.0	55.52
626.0	53.50
627.0	50.92
628.0	51.89
629.0	49.52
630.0	56.63
631.0	47.93
632.0	39.84
633.0	47.31
634.0	44.69
635.0	35.91
636.0	42.58
637.0	45.11
638.0	34.29
639.0	38.72
640.0	30.35
641.0	34.37
642.0	26.62
643.0	30.67
644.0	27.93
645.0	31.27
646.0	27.05
647.0	29.84
648.0	31.58
649.0	22.46
650.0	29.80
651.0	27.10
652.0	21.52
653.0	23.59
654.0	17.65
655.0	19.72
656.0	15.61
657.0	18.05
658.0	25.25
659.0	20.74
660.0	21.66
661.0	18.82
662.0	19.39
663.0	17.25
664.0	18.90
665.0	14.99
666.0	15.12
667.0	13.67
668.0	16.09
669.0	13.80
670.0	17.61
671.0	15.97
672.0	15.76
673.0	14.59
674.0	15.49
675.0	15.00
676.0	12.48
677.0	11.49
678.0	11.12
679.0	18.22
680.0	14.29
681.0	11.61
682.0	11.57
683.0	14.75
684.0	9.397
685.0	9.129
686.0	10.09
687.0	9.195
688.0	8.131
689.0	8.028
690.0	9.950
691.0	10.52
692.0	11.08
693.0	12.11
694.0	10.38
695.0	4.870
696.0	7.967
697.0	10.60
698.0	9.677
699.0	6.928
700.0	8.153
701.0	8.604
702.0	8.398
703.0	10.02
704.0	6.288
705.0	4.893
706.0	6.589
707.0	6.957
708.0	5.657
709.0	5.026
710.0	7.111
711.0	6.507
712.0	7.914
713.0	7.912
714.0	4.878
715.0	5.838
716.0	5.822
717.0	4.609
718.0	3.591
719.0	4.229
720.0	6.530
721.0	4.945
722.0	3.557
723.0	5.210
724.0	3.555
725.0	4.182
726.0	6.213
727.0	5.419
728.0	6.600
729.0	7.556
730.0	5.618
731.0	7.939
732.0	5.371
733.0	6.941
734.0	4.738
735.0	7.039
736.0	6.428
737.0	2.732
738.0	4.267
739.0	6.723
740.0	5.867
741.0	5.488
742.0	7.389
743.0	4.072
744.0	5.665
745.0	6.802
746.0	5.184
747.0	4.535
748.0	4.283
749.0	4.938
750.0	3.906
751.0	3.064
752.0	2.862
753.0	7.122
754.0	5.833
755.0	4.211
756.0	4.484
757.0	4.379
758.0	3.231
759.0	6.109
760.0	4.120
761.0	6.148
762.0	5.836
763.0	4.288
764.0	5.088
765.0	6.354
766.0	2.890
767.0	5.679
768.0	5.492
769.0	7.132
770.0	5.110
771.0	5.076
772.0	2.463
773.0	5.419
774.0	5.893
775.0	2.900
776.0	2.816
777.0	2.778
778.0	4.895
779.0	4.853
780.0	5.919

Sample:	'wa-18(EM)
File name:	40.FDS
Run Date:	'15:59:05, 07/11/2024
Operator:	WXH
Comment:	'

Instrument
Model:	F-4600 FL Spectrophotometer
Serial Number:	3080-002
ROM Version:	5J24000 02

Instrument Parameters
Measurement type:	Wavelength scan
Scan mode:	Emission
Data mode:	Fluorescence
EX WL:	460.0 nm
EM  Start WL:	480.0 nm
EM  End WL:	780.0 nm
Scan speed:	1200 nm/min
Delay:	0.0 s
EX Slit:	2.5 nm
EM Slit:	2.5 nm
PMT Voltage:	600 V
Response:	Auto 
Corrected spectra:	Off
Shutter control:	On

Peak integration
Integration method:	Rectangular
Sensitivity:	1
Threshold:	1.000

Peaks
No.	Valley(nm)	Valley(Data)
1	485.8	65.00
2	488.8	72.57
3	504.0	246.6
4	507.0	292.0
5	511.6	345.1
6	515.0	362.2
7	519.0	362.5
8	521.8	357.7
9	526.4	351.0
10	528.4	342.7
11	534.0	317.7
12	537.2	319.9
13	540.4	307.3
14	544.2	303.5
15	546.0	303.6
16	549.2	288.8
17	551.4	290.3
18	553.6	290.0
19	557.2	261.6
20	563.8	230.9
21	568.8	210.0
22	573.0	182.5
23	577.0	163.9
24	581.6	145.5
25	585.2	131.0
26	589.0	127.7
27	593.4	109.2
28	597.4	99.66
29	601.4	96.00
30	604.6	83.98
31	610.2	75.11
32	613.0	65.54
33	619.2	52.72
34	623.8	52.11
35	626.4	45.76
36	629.4	46.15
37	632.4	36.47
38	637.0	36.26
39	640.8	32.25
40	643.6	26.58
41	645.8	24.41
42	647.0	23.77
43	649.8	21.93
44	654.2	20.49
45	658.8	15.95
46	662.2	12.25
47	664.6	14.49
48	666.0	13.08
49	667.4	12.23
50	671.8	10.80
51	675.2	9.411
52	677.0	10.54
53	679.6	9.929
54	681.6	7.802
55	683.0	8.856
56	686.4	3.978
57	689.2	5.387
58	693.6	6.663
59	697.0	7.979
60	699.6	6.129
61	703.4	7.095
62	707.0	5.688
63	712.0	3.116
64	717.8	2.984
65	720.8	5.380
66	724.0	3.719
67	730.6	4.174
68	736.0	3.961
69	739.8	3.153
70	746.2	1.844
71	748.2	2.917
72	752.2	2.608
73	754.8	3.202
74	758.8	3.085
75	760.4	4.224
76	763.0	2.309
77	764.8	2.216
78	766.4	2.911
79	772.4	2.762
80	777.4	3.321
81	780.0	7.990

Data Points
nm	Data
480.0	53.22
481.0	55.58
482.0	61.67
483.0	64.77
484.0	75.44
485.0	77.75
486.0	69.02
487.0	75.30
488.0	79.93
489.0	75.20
490.0	85.05
491.0	93.46
492.0	104.8
493.0	104.5
494.0	114.9
495.0	135.6
496.0	148.7
497.0	169.8
498.0	195.8
499.0	194.2
500.0	206.7
501.0	215.2
502.0	235.7
503.0	251.6
504.0	246.6
505.0	279.7
506.0	302.6
507.0	292.0
508.0	319.1
509.0	318.0
510.0	322.7
511.0	351.8
512.0	353.2
513.0	365.7
514.0	365.2
515.0	362.2
516.0	381.7
517.0	388.5
518.0	385.9
519.0	362.5
520.0	396.5
521.0	364.7
522.0	368.9
523.0	390.6
524.0	380.0
525.0	360.9
526.0	386.4
527.0	355.4
528.0	362.4
529.0	343.4
530.0	358.2
531.0	350.6
532.0	350.8
533.0	346.8
534.0	317.7
535.0	337.4
536.0	326.3
537.0	323.1
538.0	348.3
539.0	330.4
540.0	324.7
541.0	314.6
542.0	330.3
543.0	310.7
544.0	304.0
545.0	308.5
546.0	303.6
547.0	310.6
548.0	310.2
549.0	296.9
550.0	313.5
551.0	297.5
552.0	318.5
553.0	296.7
554.0	318.6
555.0	279.6
556.0	271.1
557.0	269.4
558.0	268.4
559.0	269.7
560.0	267.9
561.0	244.4
562.0	240.5
563.0	232.0
564.0	244.9
565.0	251.6
566.0	244.5
567.0	238.8
568.0	219.4
569.0	221.1
570.0	218.8
571.0	209.3
572.0	203.3
573.0	182.5
574.0	195.4
575.0	192.2
576.0	185.8
577.0	163.9
578.0	182.1
579.0	165.9
580.0	166.8
581.0	166.1
582.0	152.6
583.0	166.0
584.0	157.2
585.0	135.0
586.0	150.7
587.0	161.7
588.0	137.0
589.0	127.7
590.0	141.7
591.0	139.2
592.0	121.6
593.0	121.4
594.0	110.2
595.0	122.4
596.0	113.9
597.0	103.7
598.0	112.6
599.0	105.4
600.0	96.77
601.0	98.17
602.0	101.8
603.0	104.7
604.0	86.99
605.0	86.49
606.0	92.51
607.0	94.34
608.0	84.58
609.0	85.61
610.0	81.33
611.0	77.25
612.0	82.13
613.0	65.54
614.0	70.18
615.0	81.29
616.0	76.54
617.0	69.36
618.0	63.69
619.0	53.05
620.0	60.52
621.0	58.56
622.0	60.70
623.0	58.05
624.0	58.99
625.0	51.88
626.0	53.14
627.0	48.87
628.0	51.07
629.0	51.36
630.0	51.67
631.0	45.27
632.0	41.05
633.0	41.31
634.0	47.29
635.0	39.67
636.0	42.56
637.0	36.26
638.0	44.19
639.0	36.75
640.0	35.40
641.0	36.13
642.0	36.75
643.0	35.39
644.0	29.79
645.0	30.28
646.0	27.53
647.0	23.77
648.0	26.23
649.0	23.53
650.0	23.64
651.0	31.94
652.0	25.90
653.0	20.29
654.0	20.51
655.0	23.78
656.0	24.64
657.0	20.30
658.0	18.84
659.0	17.39
660.0	14.77
661.0	15.16
662.0	12.46
663.0	19.53
664.0	15.32
665.0	18.89
666.0	13.08
667.0	17.58
668.0	15.86
669.0	17.91
670.0	19.55
671.0	15.04
672.0	11.23
673.0	13.76
674.0	13.14
675.0	12.35
676.0	12.14
677.0	10.54
678.0	11.92
679.0	13.91
680.0	12.81
681.0	9.697
682.0	12.13
683.0	8.856
684.0	12.63
685.0	9.470
686.0	7.236
687.0	8.479
688.0	10.30
689.0	8.008
690.0	8.229
691.0	10.95
692.0	9.715
693.0	7.674
694.0	9.048
695.0	9.659
696.0	12.10
697.0	7.979
698.0	9.311
699.0	8.101
700.0	7.122
701.0	8.010
702.0	9.075
703.0	7.263
704.0	9.943
705.0	8.249
706.0	7.840
707.0	5.688
708.0	7.223
709.0	5.972
710.0	4.882
711.0	3.450
712.0	3.116
713.0	5.217
714.0	6.502
715.0	5.881
716.0	6.211
717.0	8.880
718.0	3.946
719.0	6.940
720.0	9.188
721.0	7.933
722.0	8.955
723.0	5.489
724.0	3.719
725.0	7.248
726.0	6.915
727.0	6.046
728.0	5.124
729.0	6.783
730.0	5.765
731.0	5.477
732.0	8.156
733.0	6.420
734.0	6.787
735.0	5.128
736.0	3.961
737.0	5.679
738.0	7.223
739.0	5.511
740.0	4.432
741.0	5.975
742.0	5.708
743.0	7.887
744.0	6.190
745.0	4.477
746.0	3.117
747.0	6.707
748.0	4.300
749.0	3.796
750.0	5.782
751.0	3.738
752.0	3.035
753.0	8.588
754.0	4.483
755.0	4.017
756.0	4.437
757.0	3.115
758.0	3.250
759.0	5.056
760.0	5.135
761.0	6.873
762.0	3.588
763.0	2.309
764.0	4.744
765.0	4.385
766.0	4.795
767.0	4.658
768.0	6.857
769.0	6.257
770.0	5.076
771.0	4.289
772.0	4.007
773.0	4.138
774.0	6.042
775.0	6.472
776.0	5.085
777.0	3.326
778.0	5.604
779.0	7.383
780.0	7.990

Sample:	'wa-19(EM)
File name:	40.FDS
Run Date:	'15:59:35, 07/11/2024
Operator:	WXH
Comment:	'

Instrument
Model:	F-4600 FL Spectrophotometer
Serial Number:	3080-002
ROM Version:	5J24000 02

Instrument Parameters
Measurement type:	Wavelength scan
Scan mode:	Emission
Data mode:	Fluorescence
EX WL:	460.0 nm
EM  Start WL:	480.0 nm
EM  End WL:	780.0 nm
Scan speed:	1200 nm/min
Delay:	0.0 s
EX Slit:	2.5 nm
EM Slit:	2.5 nm
PMT Voltage:	600 V
Response:	Auto 
Corrected spectra:	Off
Shutter control:	On

Peak integration
Integration method:	Rectangular
Sensitivity:	1
Threshold:	1.000

Peaks
No.	Valley(nm)	Valley(Data)
1	484.8	58.68
2	511.0	344.0
3	516.4	361.9
4	520.2	362.0
5	522.8	363.4
6	529.2	330.9
7	532.6	333.0
8	536.4	318.4
9	544.4	291.3
10	547.6	292.5
11	550.2	290.4
12	555.4	280.0
13	560.8	252.3
14	565.2	230.1
15	568.0	222.4
16	571.6	192.4
17	575.4	177.4
18	581.0	159.2
19	585.6	143.5
20	590.4	110.6
21	596.8	103.8
22	600.2	106.4
23	604.8	87.39
24	612.6	73.14
25	615.8	63.60
26	618.2	62.28
27	620.2	60.89
28	622.4	55.74
29	627.0	44.58
30	632.0	36.93
31	638.4	31.67
32	643.6	29.22
33	646.4	22.45
34	650.8	17.11
35	656.8	16.35
36	658.8	16.51
37	660.0	15.36
38	663.0	13.87
39	665.0	14.71
40	668.2	11.72
41	670.4	11.28
42	674.4	10.51
43	676.4	10.56
44	680.2	5.541
45	684.2	6.640
46	689.2	4.180
47	697.4	3.485
48	702.0	7.977
49	709.0	3.833
50	712.2	5.731
51	714.8	5.036
52	719.6	5.021
53	726.2	2.847
54	728.6	2.849
55	732.8	3.569
56	736.4	3.818
57	739.0	2.115
58	749.2	1.156
59	752.0	3.246
60	753.8	2.094
61	759.6	1.323
62	763.0	1.038
63	765.0	2.714
64	768.0	2.378
65	771.4	2.451
66	776.4	2.464
67	780.0	2.615

Data Points
nm	Data
480.0	76.02
481.0	62.88
482.0	55.99
483.0	65.26
484.0	70.86
485.0	64.65
486.0	64.42
487.0	76.32
488.0	84.90
489.0	87.48
490.0	86.60
491.0	95.34
492.0	100.6
493.0	118.9
494.0	127.2
495.0	139.1
496.0	140.4
497.0	151.3
498.0	188.7
499.0	194.7
500.0	208.6
501.0	220.6
502.0	242.9
503.0	245.7
504.0	251.2
505.0	275.6
506.0	312.2
507.0	305.3
508.0	325.5
509.0	351.6
510.0	353.4
511.0	344.0
512.0	352.0
513.0	356.4
514.0	369.1
515.0	380.1
516.0	376.1
517.0	370.7
518.0	370.4
519.0	389.8
520.0	366.3
521.0	386.5
522.0	387.1
523.0	374.4
524.0	376.1
525.0	388.6
526.0	390.0
527.0	358.2
528.0	349.6
529.0	341.6
530.0	354.2
531.0	359.7
532.0	345.3
533.0	335.7
534.0	348.4
535.0	335.1
536.0	326.9
537.0	325.0
538.0	334.0
539.0	349.3
540.0	332.6
541.0	322.9
542.0	318.2
543.0	313.8
544.0	303.6
545.0	298.9
546.0	323.7
547.0	300.1
548.0	312.8
549.0	314.3
550.0	293.9
551.0	299.7
552.0	308.4
553.0	308.8
554.0	307.2
555.0	294.2
556.0	288.0
557.0	282.2
558.0	272.8
559.0	272.0
560.0	264.9
561.0	254.9
562.0	272.0
563.0	270.6
564.0	244.5
565.0	238.4
566.0	243.3
567.0	233.1
568.0	222.4
569.0	231.7
570.0	217.4
571.0	210.3
572.0	214.1
573.0	197.5
574.0	200.8
575.0	193.5
576.0	187.2
577.0	191.2
578.0	179.1
579.0	177.3
580.0	169.6
581.0	159.2
582.0	169.7
583.0	171.0
584.0	162.8
585.0	147.6
586.0	154.0
587.0	143.0
588.0	131.6
589.0	123.2
590.0	118.9
591.0	126.7
592.0	127.5
593.0	119.4
594.0	117.6
595.0	112.7
596.0	115.4
597.0	109.8
598.0	120.1
599.0	108.7
600.0	114.1
601.0	118.8
602.0	102.6
603.0	102.3
604.0	96.50
605.0	93.37
606.0	96.69
607.0	89.48
608.0	88.65
609.0	93.54
610.0	84.20
611.0	70.84
612.0	74.22
613.0	79.57
614.0	72.08
615.0	66.47
616.0	74.30
617.0	68.50
618.0	66.76
619.0	70.10
620.0	66.81
621.0	72.00
622.0	59.31
623.0	63.95
624.0	60.00
625.0	62.29
626.0	59.01
627.0	44.58
628.0	56.03
629.0	48.02
630.0	50.33
631.0	47.63
632.0	36.93
633.0	48.03
634.0	47.96
635.0	44.14
636.0	43.84
637.0	39.38
638.0	36.89
639.0	37.26
640.0	35.00
641.0	33.90
642.0	29.42
643.0	33.37
644.0	30.89
645.0	30.24
646.0	24.64
647.0	25.64
648.0	25.35
649.0	23.61
650.0	20.80
651.0	22.15
652.0	24.88
653.0	28.94
654.0	23.25
655.0	20.25
656.0	18.88
657.0	17.17
658.0	16.76
659.0	18.96
660.0	15.36
661.0	20.38
662.0	17.04
663.0	13.87
664.0	19.95
665.0	14.71
666.0	20.96
667.0	14.82
668.0	14.59
669.0	14.00
670.0	16.36
671.0	12.89
672.0	21.11
673.0	14.89
674.0	12.02
675.0	14.77
676.0	11.43
677.0	11.72
678.0	13.32
679.0	12.55
680.0	6.505
681.0	8.419
682.0	10.98
683.0	11.69
684.0	10.22
685.0	10.15
686.0	13.54
687.0	11.88
688.0	10.10
689.0	4.470
690.0	7.145
691.0	13.96
692.0	9.793
693.0	7.225
694.0	6.280
695.0	6.442
696.0	8.033
697.0	5.984
698.0	7.970
699.0	7.753
700.0	10.42
701.0	9.086
702.0	7.977
703.0	10.47
704.0	10.62
705.0	7.709
706.0	4.640
707.0	5.072
708.0	5.937
709.0	3.833
710.0	6.370
711.0	8.202
712.0	7.477
713.0	9.618
714.0	6.507
715.0	8.151
716.0	8.824
717.0	8.919
718.0	5.619
719.0	5.898
720.0	8.923
721.0	5.490
722.0	7.244
723.0	8.720
724.0	5.948
725.0	4.924
726.0	3.447
727.0	6.349
728.0	5.004
729.0	4.045
730.0	3.876
731.0	7.578
732.0	5.239
733.0	3.736
734.0	5.150
735.0	8.902
736.0	5.829
737.0	6.774
738.0	7.408
739.0	2.115
740.0	6.074
741.0	7.696
742.0	7.136
743.0	6.131
744.0	7.788
745.0	6.720
746.0	5.108
747.0	3.961
748.0	2.063
749.0	1.623
750.0	5.320
751.0	4.264
752.0	3.246
753.0	3.633
754.0	4.472
755.0	2.770
756.0	2.646
757.0	6.282
758.0	3.744
759.0	2.446
760.0	2.987
761.0	2.975
762.0	3.345
763.0	1.038
764.0	4.947
765.0	2.714
766.0	6.624
767.0	4.405
768.0	2.378
769.0	4.500
770.0	2.889
771.0	3.746
772.0	3.841
773.0	5.242
774.0	7.865
775.0	5.757
776.0	3.870
777.0	4.996
778.0	4.680
779.0	4.086
780.0	2.615

Sample:	'wa-20(EM)
File name:	40.FDS
Run Date:	'16:00:06, 07/11/2024
Operator:	WXH
Comment:	'

Instrument
Model:	F-4600 FL Spectrophotometer
Serial Number:	3080-002
ROM Version:	5J24000 02

Instrument Parameters
Measurement type:	Wavelength scan
Scan mode:	Emission
Data mode:	Fluorescence
EX WL:	460.0 nm
EM  Start WL:	480.0 nm
EM  End WL:	780.0 nm
Scan speed:	1200 nm/min
Delay:	0.0 s
EX Slit:	2.5 nm
EM Slit:	2.5 nm
PMT Voltage:	600 V
Response:	Auto 
Corrected spectra:	Off
Shutter control:	On

Peak integration
Integration method:	Rectangular
Sensitivity:	1
Threshold:	1.000

Peaks
No.	Valley(nm)	Valley(Data)
1	484.4	56.02
2	486.6	69.84
3	510.8	325.6
4	518.6	366.3
5	521.6	374.1
6	527.0	349.9
7	529.4	339.5
8	535.4	315.6
9	538.4	326.3
10	540.2	308.0
11	543.0	296.0
12	545.4	300.9
13	548.0	298.9
14	552.4	276.1
15	555.2	280.8
16	561.0	257.5
17	562.8	239.5
18	568.0	206.3
19	570.0	205.6
20	572.6	206.7
21	577.6	167.7
22	579.0	165.8
23	589.0	125.6
24	591.8	111.7
25	596.6	101.6
26	600.6	102.4
27	601.6	97.82
28	604.8	86.67
29	607.4	81.88
30	612.2	64.03
31	614.8	67.39
32	620.0	55.65
33	626.4	47.27
34	629.4	43.21
35	635.4	32.65
36	639.2	29.32
37	642.6	23.60
38	647.2	23.60
39	651.0	20.88
40	653.6	21.89
41	656.2	21.00
42	658.0	16.87
43	662.0	15.50
44	665.6	11.96
45	669.2	12.26
46	673.6	9.286
47	675.6	8.048
48	677.4	9.668
49	680.2	8.510
50	685.8	8.027
51	687.6	8.653
52	690.4	7.493
53	699.0	5.172
54	701.6	4.124
55	704.0	4.469
56	709.6	4.426
57	711.6	4.060
58	714.8	5.080
59	718.0	4.319
60	722.4	2.405
61	725.4	3.950
62	727.8	3.289
63	733.0	2.338
64	738.8	3.335
65	742.8	4.301
66	744.0	4.291
67	747.6	3.745
68	753.2	3.282
69	757.8	3.904
70	760.8	3.367
71	763.4	3.419
72	764.8	3.364
73	768.0	3.620
74	771.8	1.557
75	776.2	2.438

Data Points
nm	Data
480.0	61.35
481.0	62.87
482.0	64.75
483.0	65.91
484.0	57.85
485.0	69.60
486.0	77.01
487.0	73.79
488.0	77.84
489.0	90.64
490.0	96.47
491.0	102.7
492.0	104.3
493.0	109.5
494.0	110.9
495.0	131.8
496.0	150.6
497.0	160.3
498.0	175.0
499.0	191.3
500.0	201.6
501.0	214.9
502.0	207.3
503.0	231.5
504.0	273.1
505.0	270.0
506.0	289.4
507.0	310.1
508.0	309.5
509.0	324.8
510.0	341.5
511.0	335.8
512.0	349.3
513.0	369.2
514.0	365.8
515.0	380.2
516.0	379.0
517.0	373.7
518.0	384.3
519.0	391.7
520.0	406.1
521.0	382.2
522.0	376.8
523.0	385.9
524.0	385.8
525.0	382.8
526.0	370.1
527.0	349.9
528.0	353.2
529.0	351.8
530.0	364.9
531.0	359.9
532.0	363.5
533.0	356.2
534.0	349.3
535.0	337.8
536.0	340.9
537.0	334.3
538.0	337.2
539.0	334.1
540.0	316.2
541.0	309.2
542.0	323.6
543.0	296.0
544.0	321.0
545.0	318.3
546.0	316.1
547.0	315.5
548.0	298.9
549.0	323.6
550.0	300.1
551.0	297.4
552.0	283.7
553.0	295.6
554.0	290.8
555.0	281.6
556.0	295.4
557.0	287.1
558.0	286.6
559.0	287.4
560.0	269.2
561.0	257.5
562.0	272.1
563.0	248.5
564.0	248.9
565.0	235.0
566.0	237.4
567.0	218.8
568.0	206.3
569.0	219.9
570.0	205.6
571.0	209.1
572.0	211.5
573.0	223.0
574.0	205.2
575.0	194.3
576.0	189.7
577.0	175.1
578.0	172.9
579.0	165.8
580.0	186.2
581.0	170.4
582.0	176.8
583.0	163.5
584.0	150.9
585.0	146.2
586.0	139.7
587.0	150.0
588.0	133.4
589.0	125.6
590.0	139.9
591.0	138.1
592.0	111.8
593.0	126.0
594.0	115.1
595.0	106.6
596.0	108.1
597.0	112.9
598.0	118.8
599.0	102.6
600.0	106.7
601.0	104.8
602.0	107.0
603.0	104.1
604.0	100.7
605.0	86.84
606.0	92.39
607.0	84.23
608.0	93.60
609.0	82.59
610.0	74.84
611.0	74.36
612.0	68.83
613.0	73.55
614.0	81.24
615.0	68.05
616.0	74.79
617.0	71.74
618.0	67.81
619.0	65.86
620.0	55.65
621.0	61.71
622.0	59.52
623.0	56.64
624.0	56.68
625.0	52.50
626.0	51.29
627.0	49.17
628.0	55.76
629.0	45.38
630.0	48.17
631.0	48.64
632.0	42.70
633.0	40.40
634.0	38.33
635.0	37.85
636.0	33.35
637.0	41.59
638.0	37.89
639.0	32.01
640.0	32.54
641.0	30.34
642.0	31.13
643.0	31.10
644.0	31.81
645.0	31.62
646.0	29.57
647.0	27.91
648.0	29.35
649.0	32.03
650.0	24.73
651.0	20.88
652.0	29.55
653.0	24.48
654.0	23.80
655.0	24.19
656.0	22.70
657.0	29.06
658.0	16.87
659.0	19.72
660.0	18.78
661.0	16.29
662.0	15.50
663.0	21.22
664.0	18.47
665.0	13.49
666.0	14.25
667.0	17.22
668.0	15.23
669.0	12.86
670.0	16.11
671.0	16.57
672.0	16.68
673.0	13.13
674.0	12.32
675.0	15.53
676.0	11.07
677.0	11.10
678.0	9.897
679.0	10.35
680.0	9.746
681.0	10.38
682.0	12.88
683.0	15.21
684.0	16.20
685.0	14.27
686.0	9.352
687.0	10.22
688.0	9.062
689.0	11.78
690.0	10.57
691.0	8.439
692.0	7.084
693.0	8.265
694.0	9.163
695.0	11.28
696.0	9.880
697.0	14.33
698.0	6.532
699.0	5.172
700.0	7.681
701.0	6.727
702.0	6.433
703.0	7.239
704.0	4.469
705.0	8.990
706.0	7.768
707.0	9.066
708.0	9.068
709.0	5.444
710.0	7.170
711.0	6.182
712.0	5.319
713.0	6.115
714.0	7.831
715.0	5.402
716.0	8.122
717.0	6.552
718.0	4.319
719.0	7.745
720.0	8.181
721.0	5.723
722.0	5.188
723.0	5.453
724.0	7.983
725.0	4.271
726.0	5.739
727.0	7.011
728.0	4.567
729.0	4.815
730.0	7.908
731.0	6.062
732.0	5.564
733.0	2.338
734.0	6.298
735.0	7.314
736.0	7.835
737.0	6.708
738.0	5.363
739.0	4.514
740.0	4.128
741.0	5.657
742.0	5.471
743.0	6.688
744.0	4.291
745.0	6.140
746.0	4.830
747.0	4.704
748.0	5.025
749.0	5.577
750.0	6.657
751.0	6.257
752.0	5.676
753.0	4.479
754.0	6.110
755.0	5.341
756.0	6.723
757.0	4.743
758.0	4.570
759.0	6.210
760.0	5.310
761.0	4.416
762.0	7.226
763.0	4.118
764.0	6.161
765.0	3.772
766.0	6.128
767.0	7.301
768.0	3.620
769.0	4.742
770.0	4.677
771.0	6.035
772.0	1.641
773.0	4.765
774.0	6.062
775.0	3.983
776.0	3.353
777.0	3.130
778.0	6.356
779.0	1.736
780.0	5.884

