Sample:	'wa(EM)
File name:	50 1.FDS
Run Date:	'15:29:08, 07/11/2024
Operator:	WXH
Comment:	'

Instrument
Model:	F-4600 FL Spectrophotometer
Serial Number:	3080-002
ROM Version:	5J24000 02

Instrument Parameters
Measurement type:	Wavelength scan
Scan mode:	Emission
Data mode:	Fluorescence
EX WL:	460.0 nm
EM  Start WL:	480.0 nm
EM  End WL:	700.0 nm
Scan speed:	1200 nm/min
Delay:	0.0 s
EX Slit:	2.5 nm
EM Slit:	2.5 nm
PMT Voltage:	600 V
Response:	Auto 
Corrected spectra:	Off
Shutter control:	On

Peak integration
Integration method:	Rectangular
Sensitivity:	1
Threshold:	1.000

Peaks
No.	Valley(nm)	Valley(Data)
1	484.0	105.6
2	487.8	105.7
3	509.2	353.3
4	513.8	411.9
5	517.4	408.8
6	520.0	417.8
7	524.8	397.4
8	529.6	381.8
9	534.2	364.4
10	538.8	351.1
11	543.0	334.8
12	546.4	335.3
13	549.0	328.2
14	554.6	305.4
15	557.0	291.0
16	565.4	252.1
17	568.0	244.8
18	572.8	205.7
19	575.0	206.0
20	578.4	182.0
21	580.0	178.3
22	584.6	161.5
23	588.8	142.6
24	594.2	115.9
25	601.4	110.0
26	604.0	96.99
27	606.6	94.46
28	609.2	86.03
29	612.2	74.58
30	617.4	66.69
31	623.6	52.47
32	625.2	58.54
33	627.4	50.67
34	630.6	38.12
35	632.0	42.65
36	635.8	36.17
37	640.6	29.13
38	643.6	28.50
39	646.0	24.11
40	648.4	20.28
41	649.8	25.77
42	654.2	16.67
43	657.2	13.75
44	662.6	12.95
45	665.8	10.08
46	670.2	11.70
47	673.8	8.059
48	675.8	9.853
49	679.0	10.73
50	681.8	7.459
51	684.4	5.784
52	686.0	5.810
53	689.2	2.625
54	695.0	3.982
55	697.4	3.903
56	700.0	8.043

Data Points
nm	Data
480.0	125.5
481.0	108.7
482.0	101.7
483.0	115.5
484.0	105.6
485.0	117.0
486.0	113.4
487.0	111.1
488.0	109.4
489.0	117.9
490.0	138.3
491.0	134.3
492.0	135.1
493.0	140.2
494.0	142.0
495.0	151.9
496.0	181.4
497.0	204.6
498.0	213.9
499.0	220.8
500.0	236.9
501.0	266.1
502.0	260.6
503.0	284.4
504.0	290.8
505.0	318.0
506.0	336.4
507.0	356.1
508.0	379.6
509.0	364.5
510.0	384.5
511.0	401.6
512.0	399.2
513.0	425.6
514.0	425.2
515.0	421.6
516.0	432.3
517.0	437.4
518.0	422.5
519.0	436.0
520.0	417.8
521.0	454.3
522.0	441.3
523.0	439.2
524.0	413.6
525.0	418.8
526.0	437.3
527.0	431.8
528.0	427.4
529.0	389.1
530.0	409.2
531.0	407.4
532.0	418.4
533.0	384.5
534.0	369.4
535.0	394.2
536.0	389.9
537.0	364.0
538.0	362.1
539.0	362.6
540.0	366.1
541.0	358.4
542.0	341.6
543.0	334.8
544.0	362.6
545.0	348.1
546.0	351.7
547.0	365.7
548.0	366.3
549.0	328.2
550.0	346.8
551.0	335.5
552.0	325.3
553.0	312.1
554.0	324.9
555.0	324.5
556.0	343.7
557.0	291.0
558.0	299.0
559.0	291.8
560.0	300.2
561.0	299.0
562.0	305.7
563.0	275.3
564.0	265.5
565.0	264.4
566.0	259.8
567.0	268.1
568.0	244.8
569.0	258.3
570.0	250.4
571.0	240.6
572.0	232.8
573.0	217.5
574.0	223.5
575.0	206.0
576.0	209.6
577.0	205.5
578.0	188.1
579.0	193.2
580.0	178.3
581.0	181.4
582.0	183.8
583.0	173.0
584.0	165.0
585.0	175.7
586.0	158.1
587.0	148.6
588.0	149.4
589.0	146.2
590.0	144.7
591.0	135.2
592.0	125.0
593.0	125.5
594.0	123.5
595.0	133.2
596.0	134.2
597.0	122.6
598.0	115.2
599.0	110.1
600.0	116.3
601.0	110.8
602.0	112.2
603.0	117.0
604.0	96.99
605.0	111.1
606.0	96.38
607.0	95.35
608.0	97.37
609.0	87.35
610.0	95.96
611.0	96.01
612.0	79.86
613.0	92.78
614.0	81.16
615.0	82.49
616.0	82.68
617.0	69.66
618.0	79.26
619.0	76.20
620.0	77.56
621.0	70.03
622.0	62.09
623.0	61.42
624.0	54.75
625.0	61.06
626.0	58.95
627.0	63.12
628.0	51.34
629.0	51.29
630.0	47.75
631.0	42.87
632.0	42.65
633.0	49.21
634.0	52.48
635.0	44.86
636.0	36.81
637.0	43.15
638.0	35.65
639.0	37.47
640.0	36.38
641.0	35.86
642.0	26.65
643.0	30.61
644.0	29.44
645.0	31.23
646.0	24.11
647.0	30.80
648.0	23.79
649.0	30.70
650.0	26.41
651.0	27.62
652.0	22.03
653.0	18.85
654.0	20.37
655.0	20.40
656.0	20.46
657.0	15.68
658.0	20.26
659.0	17.97
660.0	15.78
661.0	19.98
662.0	15.66
663.0	16.75
664.0	16.38
665.0	15.18
666.0	14.02
667.0	15.47
668.0	13.57
669.0	15.81
670.0	11.73
671.0	15.36
672.0	14.23
673.0	9.277
674.0	9.507
675.0	13.85
676.0	12.47
677.0	12.63
678.0	12.51
679.0	10.73
680.0	12.11
681.0	8.155
682.0	8.844
683.0	12.71
684.0	8.387
685.0	9.616
686.0	5.810
687.0	9.413
688.0	10.68
689.0	3.603
690.0	3.916
691.0	5.304
692.0	5.691
693.0	9.256
694.0	5.214
695.0	3.982
696.0	7.046
697.0	6.176
698.0	8.115
699.0	8.640
700.0	8.043

