Sample:	'wa-1(EM)
File name:	50.FDS
Run Date:	'15:32:50, 07/11/2024
Operator:	WXH
Comment:	'

Instrument
Model:	F-4600 FL Spectrophotometer
Serial Number:	3080-002
ROM Version:	5J24000 02

Instrument Parameters
Measurement type:	Wavelength scan
Scan mode:	Emission
Data mode:	Fluorescence
EX WL:	460.0 nm
EM  Start WL:	480.0 nm
EM  End WL:	780.0 nm
Scan speed:	1200 nm/min
Delay:	0.0 s
EX Slit:	2.5 nm
EM Slit:	2.5 nm
PMT Voltage:	600 V
Response:	Auto 
Corrected spectra:	Off
Shutter control:	On

Peak integration
Integration method:	Rectangular
Sensitivity:	1
Threshold:	1.000

Peaks
No.	Valley(nm)	Valley(Data)
1	482.8	95.29
2	485.2	108.6
3	488.8	105.3
4	497.2	180.1
5	510.6	378.7
6	513.8	408.4
7	517.2	436.1
8	519.6	426.3
9	522.2	424.2
10	526.0	398.9
11	527.6	397.3
12	533.4	364.3
13	538.6	348.8
14	542.0	354.1
15	545.4	322.4
16	547.2	336.0
17	549.8	329.1
18	554.2	303.4
19	556.4	299.2
20	558.0	299.2
21	561.4	277.7
22	567.6	244.6
23	571.0	215.6
24	573.4	215.3
25	580.2	170.6
26	583.4	158.3
27	587.4	144.4
28	590.6	137.2
29	594.2	130.2
30	599.2	104.3
31	601.8	100.9
32	607.0	90.22
33	610.4	81.52
34	614.6	75.07
35	618.0	63.90
36	621.6	54.62
37	629.8	46.07
38	633.0	43.62
39	635.6	34.40
40	638.6	33.56
41	641.2	30.38
42	644.0	27.49
43	645.8	22.62
44	648.6	22.93
45	650.4	24.06
46	655.0	18.25
47	658.6	16.07
48	660.2	15.93
49	662.8	14.97
50	667.0	13.68
51	671.6	10.24
52	676.0	10.00
53	680.6	8.004
54	682.2	5.842
55	687.0	4.810
56	690.6	5.990
57	694.4	3.039
58	696.6	4.355
59	698.4	5.239
60	700.2	4.503
61	702.4	3.506
62	706.4	3.484
63	708.2	3.468
64	710.0	3.793
65	712.6	2.870
66	714.8	1.100
67	717.6	1.776
68	720.0	1.994
69	726.4	1.964
70	731.0	0.391
71	734.0	1.391
72	741.4	1.802
73	744.2	1.419
74	750.0	0.411
75	751.4	0.511
76	756.6	0.837
77	760.4	0.228
78	763.0	1.920
79	769.6	-0.396
80	772.0	-0.178
81	775.4	0.775
82	777.4	0.660
83	780.0	2.294

Data Points
nm	Data
480.0	107.1
481.0	103.8
482.0	103.4
483.0	98.96
484.0	105.8
485.0	113.4
486.0	114.7
487.0	116.2
488.0	113.6
489.0	112.4
490.0	123.6
491.0	125.6
492.0	140.9
493.0	154.7
494.0	171.5
495.0	170.5
496.0	187.0
497.0	182.0
498.0	196.9
499.0	214.5
500.0	232.7
501.0	262.2
502.0	291.4
503.0	282.0
504.0	307.8
505.0	319.2
506.0	335.0
507.0	354.0
508.0	369.8
509.0	377.0
510.0	404.5
511.0	393.9
512.0	411.7
513.0	420.5
514.0	409.8
515.0	440.4
516.0	458.1
517.0	441.5
518.0	474.8
519.0	434.9
520.0	433.9
521.0	448.7
522.0	444.3
523.0	435.1
524.0	428.6
525.0	425.6
526.0	398.9
527.0	415.4
528.0	408.7
529.0	408.1
530.0	413.3
531.0	416.0
532.0	385.0
533.0	367.3
534.0	370.6
535.0	389.0
536.0	395.7
537.0	387.1
538.0	366.4
539.0	356.9
540.0	381.5
541.0	367.1
542.0	354.1
543.0	359.7
544.0	369.4
545.0	333.1
546.0	349.5
547.0	357.8
548.0	357.6
549.0	355.5
550.0	334.1
551.0	336.8
552.0	344.9
553.0	318.6
554.0	311.1
555.0	319.8
556.0	305.8
557.0	308.5
558.0	299.2
559.0	301.1
560.0	291.7
561.0	279.9
562.0	290.0
563.0	283.7
564.0	269.1
565.0	268.3
566.0	262.2
567.0	256.2
568.0	248.2
569.0	248.1
570.0	232.2
571.0	215.6
572.0	234.8
573.0	221.5
574.0	224.7
575.0	214.5
576.0	219.5
577.0	205.4
578.0	204.4
579.0	183.0
580.0	178.1
581.0	181.9
582.0	174.3
583.0	165.0
584.0	172.6
585.0	163.0
586.0	160.0
587.0	156.7
588.0	148.5
589.0	140.1
590.0	147.8
591.0	139.7
592.0	131.8
593.0	146.0
594.0	130.3
595.0	135.2
596.0	140.1
597.0	119.7
598.0	119.6
599.0	105.4
600.0	118.7
601.0	124.0
602.0	101.9
603.0	107.7
604.0	105.3
605.0	103.0
606.0	90.33
607.0	90.22
608.0	99.78
609.0	93.47
610.0	87.29
611.0	93.77
612.0	89.18
613.0	83.53
614.0	77.70
615.0	83.37
616.0	82.73
617.0	74.93
618.0	63.90
619.0	75.49
620.0	67.58
621.0	62.70
622.0	57.04
623.0	70.57
624.0	72.84
625.0	60.34
626.0	58.10
627.0	56.97
628.0	53.02
629.0	48.09
630.0	52.49
631.0	51.71
632.0	55.10
633.0	43.62
634.0	42.08
635.0	40.18
636.0	43.50
637.0	37.10
638.0	38.26
639.0	42.51
640.0	35.79
641.0	33.28
642.0	36.79
643.0	37.50
644.0	27.49
645.0	30.26
646.0	23.06
647.0	29.10
648.0	29.54
649.0	28.40
650.0	28.62
651.0	31.81
652.0	25.08
653.0	22.63
654.0	21.82
655.0	18.25
656.0	16.62
657.0	22.75
658.0	18.91
659.0	20.36
660.0	19.33
661.0	17.56
662.0	19.41
663.0	16.95
664.0	20.45
665.0	16.91
666.0	15.73
667.0	13.68
668.0	16.81
669.0	16.38
670.0	14.64
671.0	10.19
672.0	10.74
673.0	13.66
674.0	14.46
675.0	10.67
676.0	10.00
677.0	10.53
678.0	12.47
679.0	15.55
680.0	9.332
681.0	10.30
682.0	7.451
683.0	9.264
684.0	9.315
685.0	11.01
686.0	6.667
687.0	4.810
688.0	11.60
689.0	9.600
690.0	8.124
691.0	7.518
692.0	10.53
693.0	5.541
694.0	3.997
695.0	5.351
696.0	5.656
697.0	8.485
698.0	6.469
699.0	6.146
700.0	6.189
701.0	5.812
702.0	5.668
703.0	5.514
704.0	5.399
705.0	6.273
706.0	5.432
707.0	4.369
708.0	4.005
709.0	6.850
710.0	3.793
711.0	6.034
712.0	4.429
713.0	5.383
714.0	4.811
715.0	2.095
716.0	3.356
717.0	2.236
718.0	2.145
719.0	5.183
720.0	1.994
721.0	11.18
722.0	9.351
723.0	4.384
724.0	3.607
725.0	2.822
726.0	3.106
727.0	4.256
728.0	5.321
729.0	3.587
730.0	1.749
731.0	0.391
732.0	3.755
733.0	2.903
734.0	1.391
735.0	5.525
736.0	3.667
737.0	4.504
738.0	4.065
739.0	2.957
740.0	2.908
741.0	2.144
742.0	2.901
743.0	2.952
744.0	2.757
745.0	5.161
746.0	4.583
747.0	3.600
748.0	2.767
749.0	2.179
750.0	0.411
751.0	0.664
752.0	1.222
753.0	2.277
754.0	4.142
755.0	2.101
756.0	3.269
757.0	1.972
758.0	2.863
759.0	3.143
760.0	0.373
761.0	1.719
762.0	5.055
763.0	1.920
764.0	2.286
765.0	4.589
766.0	2.832
767.0	0.597
768.0	0.565
769.0	0.614
770.0	0.261
771.0	1.683
772.0	-0.178
773.0	0.424
774.0	2.095
775.0	1.456
776.0	2.947
777.0	1.747
778.0	3.077
779.0	2.048
780.0	2.294

Sample:	'wa-2(EM)
File name:	50.FDS
Run Date:	'15:33:20, 07/11/2024
Operator:	WXH
Comment:	'

Instrument
Model:	F-4600 FL Spectrophotometer
Serial Number:	3080-002
ROM Version:	5J24000 02

Instrument Parameters
Measurement type:	Wavelength scan
Scan mode:	Emission
Data mode:	Fluorescence
EX WL:	460.0 nm
EM  Start WL:	480.0 nm
EM  End WL:	780.0 nm
Scan speed:	1200 nm/min
Delay:	0.0 s
EX Slit:	2.5 nm
EM Slit:	2.5 nm
PMT Voltage:	600 V
Response:	Auto 
Corrected spectra:	Off
Shutter control:	On

Peak integration
Integration method:	Rectangular
Sensitivity:	1
Threshold:	1.000

Peaks
No.	Valley(nm)	Valley(Data)
1	488.0	106.5
2	491.4	118.9
3	509.8	358.1
4	516.0	410.1
5	519.0	431.1
6	522.2	409.0
7	524.8	416.8
8	530.4	388.0
9	534.8	361.3
10	539.2	345.1
11	545.0	323.1
12	552.4	303.3
13	556.2	299.8
14	559.0	286.6
15	565.2	254.6
16	569.6	237.5
17	579.0	181.7
18	588.0	152.2
19	590.2	140.7
20	595.4	116.0
21	597.8	121.4
22	604.2	96.52
23	606.6	98.25
24	609.8	83.96
25	615.2	71.66
26	620.4	63.18
27	625.4	49.19
28	629.6	50.29
29	634.2	42.31
30	638.0	32.76
31	643.4	26.18
32	650.4	22.47
33	652.0	19.34
34	655.8	16.91
35	660.0	17.66
36	665.4	13.12
37	668.0	9.165
38	672.0	10.95
39	675.0	8.894
40	677.0	10.10
41	679.6	7.900
42	682.0	8.547
43	686.2	6.202
44	691.6	6.317
45	695.0	4.755
46	698.4	4.412
47	702.8	0.774
48	705.8	3.148
49	709.2	1.994
50	714.2	1.726
51	719.0	3.790
52	722.0	0.802
53	724.0	3.012
54	726.2	3.167
55	729.0	1.335
56	731.8	1.470
57	736.6	1.347
58	738.6	1.056
59	740.2	0.735
60	742.6	-0.346
61	745.4	0.938
62	747.8	1.835
63	750.8	0.978
64	758.2	0.467
65	760.4	0.936
66	763.0	0.291
67	766.4	1.096
68	771.4	-0.976
69	778.2	1.192

Data Points
nm	Data
480.0	117.0
481.0	105.1
482.0	104.1
483.0	93.87
484.0	101.8
485.0	115.4
486.0	111.3
487.0	110.7
488.0	106.5
489.0	124.3
490.0	122.9
491.0	127.2
492.0	133.0
493.0	153.9
494.0	160.4
495.0	175.1
496.0	175.8
497.0	202.7
498.0	223.3
499.0	227.6
500.0	228.8
501.0	272.9
502.0	273.8
503.0	281.2
504.0	292.6
505.0	331.0
506.0	355.1
507.0	369.2
508.0	375.4
509.0	374.6
510.0	373.6
511.0	401.0
512.0	411.5
513.0	414.4
514.0	441.6
515.0	438.0
516.0	410.1
517.0	456.4
518.0	444.3
519.0	431.1
520.0	430.4
521.0	425.1
522.0	419.6
523.0	443.9
524.0	417.5
525.0	439.0
526.0	438.2
527.0	422.1
528.0	399.9
529.0	398.4
530.0	389.2
531.0	395.4
532.0	403.0
533.0	412.0
534.0	397.4
535.0	374.5
536.0	374.1
537.0	380.5
538.0	378.7
539.0	362.0
540.0	363.5
541.0	357.0
542.0	358.1
543.0	363.8
544.0	352.2
545.0	323.1
546.0	330.7
547.0	349.2
548.0	352.3
549.0	336.4
550.0	337.9
551.0	331.6
552.0	320.9
553.0	316.6
554.0	317.6
555.0	329.6
556.0	309.6
557.0	312.4
558.0	325.5
559.0	286.6
560.0	305.8
561.0	307.0
562.0	291.6
563.0	292.3
564.0	277.5
565.0	267.8
566.0	263.6
567.0	263.2
568.0	258.8
569.0	251.3
570.0	249.7
571.0	252.0
572.0	227.1
573.0	240.1
574.0	212.5
575.0	216.4
576.0	213.4
577.0	210.6
578.0	204.2
579.0	181.7
580.0	204.1
581.0	190.1
582.0	174.5
583.0	181.9
584.0	170.1
585.0	179.6
586.0	165.3
587.0	166.7
588.0	152.2
589.0	157.6
590.0	141.2
591.0	150.3
592.0	150.2
593.0	133.0
594.0	131.1
595.0	130.6
596.0	123.8
597.0	126.7
598.0	128.8
599.0	138.0
600.0	112.9
601.0	113.7
602.0	113.5
603.0	110.3
604.0	100.4
605.0	113.3
606.0	99.92
607.0	108.3
608.0	101.0
609.0	86.12
610.0	86.98
611.0	89.15
612.0	80.22
613.0	77.43
614.0	84.01
615.0	76.65
616.0	76.10
617.0	74.86
618.0	85.97
619.0	72.70
620.0	67.47
621.0	67.70
622.0	71.17
623.0	66.10
624.0	61.28
625.0	58.33
626.0	53.89
627.0	55.62
628.0	53.27
629.0	53.39
630.0	54.51
631.0	58.01
632.0	58.20
633.0	48.06
634.0	49.26
635.0	47.75
636.0	42.17
637.0	33.36
638.0	32.76
639.0	36.48
640.0	36.52
641.0	32.05
642.0	28.94
643.0	27.03
644.0	31.30
645.0	28.62
646.0	29.66
647.0	29.55
648.0	22.57
649.0	26.94
650.0	24.44
651.0	34.29
652.0	19.34
653.0	25.33
654.0	22.16
655.0	17.53
656.0	17.95
657.0	18.03
658.0	24.98
659.0	22.21
660.0	17.66
661.0	22.34
662.0	20.38
663.0	14.81
664.0	16.36
665.0	13.58
666.0	17.83
667.0	16.32
668.0	9.165
669.0	15.61
670.0	16.77
671.0	16.62
672.0	10.95
673.0	13.26
674.0	12.59
675.0	8.894
676.0	11.72
677.0	10.10
678.0	13.39
679.0	12.11
680.0	10.39
681.0	10.05
682.0	8.547
683.0	11.29
684.0	8.304
685.0	6.762
686.0	7.555
687.0	8.903
688.0	9.425
689.0	14.35
690.0	11.31
691.0	8.806
692.0	6.847
693.0	8.826
694.0	8.000
695.0	4.755
696.0	10.02
697.0	7.962
698.0	7.389
699.0	10.69
700.0	5.687
701.0	6.992
702.0	3.970
703.0	3.299
704.0	5.967
705.0	6.152
706.0	5.085
707.0	3.953
708.0	4.196
709.0	2.429
710.0	6.997
711.0	6.101
712.0	5.183
713.0	2.730
714.0	2.323
715.0	5.663
716.0	7.926
717.0	5.490
718.0	5.053
719.0	3.790
720.0	5.559
721.0	1.969
722.0	0.802
723.0	3.951
724.0	3.012
725.0	5.520
726.0	4.525
727.0	4.595
728.0	4.922
729.0	1.335
730.0	3.368
731.0	2.760
732.0	1.519
733.0	7.438
734.0	5.246
735.0	3.643
736.0	3.502
737.0	3.066
738.0	2.710
739.0	4.287
740.0	0.983
741.0	3.339
742.0	0.255
743.0	0.694
744.0	3.605
745.0	2.381
746.0	3.735
747.0	3.105
748.0	2.400
749.0	4.471
750.0	1.770
751.0	1.330
752.0	2.932
753.0	2.796
754.0	5.201
755.0	4.658
756.0	4.004
757.0	1.653
758.0	0.626
759.0	2.972
760.0	1.741
761.0	2.294
762.0	2.944
763.0	0.291
764.0	2.791
765.0	0.677
766.0	1.330
767.0	1.382
768.0	2.193
769.0	3.487
770.0	4.476
771.0	0.269
772.0	0.744
773.0	3.761
774.0	3.785
775.0	3.165
776.0	5.360
777.0	1.468
778.0	1.856
779.0	2.342
780.0	2.528

Sample:	'wa-3(EM)
File name:	50.FDS
Run Date:	'15:33:50, 07/11/2024
Operator:	WXH
Comment:	'

Instrument
Model:	F-4600 FL Spectrophotometer
Serial Number:	3080-002
ROM Version:	5J24000 02

Instrument Parameters
Measurement type:	Wavelength scan
Scan mode:	Emission
Data mode:	Fluorescence
EX WL:	460.0 nm
EM  Start WL:	480.0 nm
EM  End WL:	780.0 nm
Scan speed:	1200 nm/min
Delay:	0.0 s
EX Slit:	2.5 nm
EM Slit:	2.5 nm
PMT Voltage:	600 V
Response:	Auto 
Corrected spectra:	Off
Shutter control:	On

Peak integration
Integration method:	Rectangular
Sensitivity:	1
Threshold:	1.000

Peaks
No.	Valley(nm)	Valley(Data)
1	481.6	91.04
2	484.2	101.7
3	489.0	109.2
4	511.4	400.6
5	514.6	401.9
6	519.8	430.9
7	522.2	428.0
8	524.0	413.7
9	529.6	404.8
10	530.8	401.3
11	533.8	383.1
12	536.8	365.8
13	540.2	334.1
14	543.0	335.0
15	546.6	344.5
16	548.8	348.8
17	552.6	301.8
18	555.2	311.4
19	559.0	277.6
20	567.8	242.4
21	577.0	201.1
22	580.6	173.8
23	586.2	156.4
24	589.8	140.5
25	595.0	123.8
26	600.0	109.5
27	605.0	101.7
28	608.8	79.26
29	612.0	78.44
30	614.2	73.06
31	617.4	68.60
32	620.8	65.86
33	625.2	53.96
34	626.6	55.90
35	630.0	44.43
36	634.4	36.41
37	637.2	36.68
38	641.4	28.28
39	645.2	24.06
40	648.6	23.46
41	653.0	18.51
42	655.8	16.97
43	659.6	19.05
44	663.4	12.50
45	666.8	13.09
46	671.0	9.779
47	677.0	10.41
48	684.2	5.860
49	688.6	5.771
50	692.4	5.029
51	696.6	4.686
52	699.6	2.954
53	704.2	2.316
54	708.4	2.554
55	716.8	1.974
56	721.4	2.673
57	724.6	2.470
58	728.0	2.487
59	730.2	3.081
60	733.4	0.847
61	736.2	0.798
62	738.8	0.945
63	741.6	1.532
64	747.2	0.726
65	749.0	0.342
66	753.2	0.957
67	759.6	0.759
68	760.8	1.232
69	766.4	0.021
70	769.4	0.437
71	771.4	0.274
72	774.6	0.852
73	777.8	0.966

Data Points
nm	Data
480.0	106.1
481.0	97.33
482.0	103.2
483.0	105.2
484.0	104.6
485.0	105.1
486.0	108.4
487.0	117.5
488.0	122.2
489.0	109.2
490.0	117.3
491.0	136.5
492.0	139.0
493.0	163.7
494.0	165.9
495.0	168.6
496.0	177.7
497.0	188.1
498.0	202.5
499.0	224.1
500.0	239.5
501.0	263.6
502.0	272.8
503.0	289.8
504.0	302.6
505.0	332.5
506.0	344.6
507.0	357.9
508.0	369.7
509.0	401.5
510.0	426.4
511.0	412.8
512.0	420.9
513.0	419.6
514.0	420.4
515.0	421.2
516.0	409.2
517.0	417.9
518.0	434.6
519.0	435.0
520.0	449.7
521.0	454.9
522.0	431.2
523.0	451.4
524.0	413.7
525.0	458.9
526.0	431.6
527.0	417.6
528.0	416.9
529.0	415.2
530.0	416.4
531.0	402.9
532.0	417.1
533.0	393.5
534.0	393.3
535.0	395.8
536.0	377.4
537.0	372.7
538.0	381.8
539.0	361.7
540.0	339.5
541.0	362.5
542.0	380.1
543.0	335.0
544.0	374.0
545.0	358.8
546.0	354.2
547.0	369.1
548.0	362.1
549.0	349.6
550.0	355.1
551.0	330.1
552.0	322.7
553.0	308.5
554.0	321.0
555.0	320.0
556.0	317.2
557.0	317.4
558.0	307.6
559.0	277.6
560.0	293.5
561.0	285.4
562.0	297.9
563.0	294.1
564.0	282.3
565.0	265.2
566.0	274.8
567.0	252.9
568.0	263.5
569.0	247.8
570.0	241.1
571.0	227.1
572.0	231.1
573.0	221.0
574.0	225.3
575.0	214.5
576.0	212.2
577.0	201.1
578.0	203.4
579.0	186.1
580.0	189.0
581.0	176.1
582.0	184.9
583.0	173.9
584.0	167.0
585.0	162.7
586.0	160.6
587.0	164.0
588.0	156.7
589.0	144.6
590.0	148.9
591.0	162.0
592.0	140.4
593.0	139.1
594.0	136.1
595.0	123.8
596.0	136.3
597.0	129.5
598.0	136.9
599.0	123.6
600.0	109.5
601.0	118.8
602.0	128.6
603.0	119.6
604.0	111.9
605.0	101.7
606.0	107.9
607.0	96.63
608.0	96.63
609.0	90.82
610.0	86.54
611.0	94.39
612.0	78.44
613.0	85.21
614.0	73.12
615.0	81.61
616.0	89.16
617.0	73.74
618.0	76.83
619.0	67.39
620.0	69.19
621.0	66.87
622.0	73.09
623.0	65.66
624.0	58.79
625.0	59.52
626.0	61.56
627.0	63.02
628.0	59.53
629.0	54.40
630.0	44.43
631.0	48.73
632.0	45.73
633.0	40.71
634.0	39.07
635.0	44.59
636.0	39.44
637.0	37.30
638.0	44.94
639.0	41.13
640.0	39.39
641.0	37.91
642.0	37.50
643.0	37.68
644.0	32.09
645.0	27.26
646.0	28.11
647.0	27.12
648.0	28.92
649.0	26.74
650.0	32.03
651.0	24.53
652.0	24.25
653.0	18.51
654.0	25.07
655.0	22.52
656.0	20.21
657.0	24.87
658.0	24.00
659.0	20.07
660.0	22.79
661.0	20.85
662.0	14.53
663.0	14.08
664.0	12.38
665.0	15.43
666.0	14.10
667.0	14.54
668.0	17.14
669.0	11.87
670.0	12.00
671.0	9.779
672.0	11.33
673.0	11.79
674.0	11.33
675.0	11.88
676.0	11.24
677.0	10.41
678.0	11.58
679.0	14.38
680.0	12.42
681.0	7.452
682.0	8.227
683.0	9.237
684.0	9.034
685.0	10.03
686.0	10.29
687.0	9.681
688.0	8.302
689.0	6.754
690.0	8.803
691.0	11.84
692.0	7.205
693.0	8.263
694.0	7.572
695.0	8.092
696.0	6.211
697.0	6.129
698.0	7.469
699.0	4.991
700.0	6.396
701.0	6.135
702.0	7.818
703.0	4.047
704.0	3.245
705.0	5.035
706.0	5.565
707.0	2.723
708.0	2.603
709.0	4.458
710.0	4.010
711.0	3.234
712.0	4.074
713.0	6.202
714.0	4.244
715.0	4.688
716.0	2.065
717.0	4.200
718.0	2.095
719.0	5.368
720.0	5.365
721.0	5.288
722.0	3.559
723.0	4.881
724.0	2.941
725.0	2.754
726.0	6.186
727.0	4.960
728.0	2.487
729.0	4.300
730.0	3.166
731.0	4.162
732.0	4.158
733.0	1.185
734.0	2.592
735.0	4.315
736.0	1.263
737.0	2.186
738.0	4.491
739.0	0.995
740.0	3.404
741.0	5.192
742.0	3.258
743.0	4.481
744.0	4.336
745.0	1.890
746.0	1.342
747.0	1.113
748.0	3.116
749.0	0.342
750.0	2.497
751.0	1.577
752.0	0.923
753.0	1.673
754.0	2.278
755.0	1.473
756.0	6.031
757.0	5.335
758.0	3.961
759.0	1.819
760.0	2.998
761.0	1.745
762.0	5.677
763.0	2.373
764.0	3.275
765.0	1.499
766.0	1.682
767.0	1.988
768.0	3.080
769.0	1.197
770.0	1.197
771.0	0.861
772.0	1.285
773.0	2.957
774.0	3.955
775.0	1.594
776.0	2.625
777.0	3.246
778.0	2.272
779.0	2.608
780.0	4.542

Sample:	'wa-4(EM)
File name:	50.FDS
Run Date:	'15:34:20, 07/11/2024
Operator:	WXH
Comment:	'

Instrument
Model:	F-4600 FL Spectrophotometer
Serial Number:	3080-002
ROM Version:	5J24000 02

Instrument Parameters
Measurement type:	Wavelength scan
Scan mode:	Emission
Data mode:	Fluorescence
EX WL:	460.0 nm
EM  Start WL:	480.0 nm
EM  End WL:	780.0 nm
Scan speed:	1200 nm/min
Delay:	0.0 s
EX Slit:	2.5 nm
EM Slit:	2.5 nm
PMT Voltage:	600 V
Response:	Auto 
Corrected spectra:	Off
Shutter control:	On

Peak integration
Integration method:	Rectangular
Sensitivity:	1
Threshold:	1.000

Peaks
No.	Valley(nm)	Valley(Data)
1	482.4	94.97
2	485.2	101.5
3	489.0	115.1
4	513.4	408.4
5	518.2	424.4
6	524.2	418.0
7	527.4	400.9
8	532.2	382.7
9	534.6	374.1
10	540.2	346.9
11	545.0	333.4
12	547.4	319.6
13	550.8	321.5
14	553.2	311.7
15	558.6	282.9
16	562.0	274.5
17	572.2	191.1
18	577.8	187.9
19	581.4	164.0
20	587.6	149.6
21	591.8	129.5
22	596.4	123.2
23	598.8	114.1
24	601.8	100.6
25	607.6	86.62
26	610.2	83.00
27	614.4	68.85
28	616.2	64.62
29	620.8	58.42
30	623.4	57.13
31	625.4	53.61
32	629.2	46.00
33	635.4	40.63
34	638.0	39.67
35	640.4	33.10
36	646.4	26.01
37	649.4	22.39
38	653.0	19.41
39	654.8	16.33
40	660.0	18.39
41	662.8	11.76
42	668.2	11.22
43	673.8	8.188
44	675.8	7.876
45	677.8	9.354
46	681.2	6.730
47	684.8	6.400
48	689.8	3.300
49	696.2	5.571
50	701.6	5.201
51	704.8	0.625
52	709.4	1.951
53	714.2	2.438
54	718.6	2.436
55	719.4	2.305
56	725.8	0.985
57	727.8	0.883
58	729.6	1.120
59	733.0	2.518
60	737.2	2.727
61	741.8	0.925
62	746.4	0.408
63	752.2	0.992
64	757.6	0.757
65	761.6	-0.359
66	769.4	1.869
67	771.4	1.578
68	775.0	-0.511
69	777.4	0.752
70	780.0	0.119

Data Points
nm	Data
480.0	104.0
481.0	105.3
482.0	97.82
483.0	102.6
484.0	103.1
485.0	104.6
486.0	113.4
487.0	106.3
488.0	112.1
489.0	115.1
490.0	123.2
491.0	132.2
492.0	140.1
493.0	148.0
494.0	150.5
495.0	180.9
496.0	170.4
497.0	188.9
498.0	210.6
499.0	223.5
500.0	232.8
501.0	258.6
502.0	279.4
503.0	305.4
504.0	299.4
505.0	319.2
506.0	346.9
507.0	365.7
508.0	383.3
509.0	382.9
510.0	396.7
511.0	402.3
512.0	413.1
513.0	420.7
514.0	417.5
515.0	415.3
516.0	435.6
517.0	444.7
518.0	425.4
519.0	446.1
520.0	470.8
521.0	452.0
522.0	443.3
523.0	435.6
524.0	427.0
525.0	440.8
526.0	435.5
527.0	423.8
528.0	417.2
529.0	407.8
530.0	407.9
531.0	408.6
532.0	405.6
533.0	418.4
534.0	404.3
535.0	380.6
536.0	393.7
537.0	391.1
538.0	378.6
539.0	361.4
540.0	350.2
541.0	373.1
542.0	387.7
543.0	375.2
544.0	349.2
545.0	333.4
546.0	352.4
547.0	335.3
548.0	335.2
549.0	347.3
550.0	342.6
551.0	324.2
552.0	332.1
553.0	317.6
554.0	314.7
555.0	335.7
556.0	293.3
557.0	295.6
558.0	296.4
559.0	298.3
560.0	295.7
561.0	303.7
562.0	274.5
563.0	287.9
564.0	300.8
565.0	291.0
566.0	276.3
567.0	251.9
568.0	253.4
569.0	252.0
570.0	256.2
571.0	235.1
572.0	206.0
573.0	208.0
574.0	217.9
575.0	215.1
576.0	208.9
577.0	208.8
578.0	191.4
579.0	190.2
580.0	177.0
581.0	180.3
582.0	185.4
583.0	185.0
584.0	178.0
585.0	174.3
586.0	146.0
587.0	153.3
588.0	154.5
589.0	158.1
590.0	156.5
591.0	140.1
592.0	130.0
593.0	144.6
594.0	137.3
595.0	129.0
596.0	130.2
597.0	136.2
598.0	119.0
599.0	119.8
600.0	116.7
601.0	111.7
602.0	108.6
603.0	110.0
604.0	109.0
605.0	100.3
606.0	98.84
607.0	106.2
608.0	91.44
609.0	99.75
610.0	85.37
611.0	91.19
612.0	90.93
613.0	89.61
614.0	75.46
615.0	80.06
616.0	73.19
617.0	75.07
618.0	78.01
619.0	73.90
620.0	70.49
621.0	60.06
622.0	65.21
623.0	63.11
624.0	60.87
625.0	57.08
626.0	58.81
627.0	65.79
628.0	52.97
629.0	48.62
630.0	53.28
631.0	49.13
632.0	48.95
633.0	44.35
634.0	48.48
635.0	43.23
636.0	46.61
637.0	43.57
638.0	39.67
639.0	47.52
640.0	35.27
641.0	36.11
642.0	36.38
643.0	29.36
644.0	27.55
645.0	25.66
646.0	27.57
647.0	27.16
648.0	26.84
649.0	26.73
650.0	25.22
651.0	30.36
652.0	23.73
653.0	19.41
654.0	23.05
655.0	17.84
656.0	20.69
657.0	27.10
658.0	22.83
659.0	19.58
660.0	18.39
661.0	23.63
662.0	16.90
663.0	12.87
664.0	22.00
665.0	21.01
666.0	20.69
667.0	15.21
668.0	11.73
669.0	12.63
670.0	12.89
671.0	12.42
672.0	9.895
673.0	11.49
674.0	8.813
675.0	13.75
676.0	9.211
677.0	10.54
678.0	9.931
679.0	13.11
680.0	8.346
681.0	7.942
682.0	7.816
683.0	10.71
684.0	6.719
685.0	7.668
686.0	8.166
687.0	8.291
688.0	11.07
689.0	7.624
690.0	5.393
691.0	10.92
692.0	11.20
693.0	10.81
694.0	7.400
695.0	8.208
696.0	6.187
697.0	7.927
698.0	6.512
699.0	6.695
700.0	6.285
701.0	5.923
702.0	6.492
703.0	3.377
704.0	2.995
705.0	4.860
706.0	3.686
707.0	5.398
708.0	4.844
709.0	2.775
710.0	4.699
711.0	5.186
712.0	4.812
713.0	4.934
714.0	2.929
715.0	4.689
716.0	6.464
717.0	5.488
718.0	3.066
719.0	3.483
720.0	2.984
721.0	5.517
722.0	4.879
723.0	6.563
724.0	7.826
725.0	3.220
726.0	1.917
727.0	2.165
728.0	1.676
729.0	4.008
730.0	5.661
731.0	2.926
732.0	3.809
733.0	2.518
734.0	3.181
735.0	3.302
736.0	3.132
737.0	3.362
738.0	4.009
739.0	5.617
740.0	4.583
741.0	3.845
742.0	2.388
743.0	3.551
744.0	3.539
745.0	3.408
746.0	1.705
747.0	3.173
748.0	3.821
749.0	0.760
750.0	2.015
751.0	1.960
752.0	1.445
753.0	1.802
754.0	2.569
755.0	4.496
756.0	2.276
757.0	2.371
758.0	2.244
759.0	2.582
760.0	3.857
761.0	2.546
762.0	0.944
763.0	1.813
764.0	4.745
765.0	4.356
766.0	4.154
767.0	5.577
768.0	3.269
769.0	2.038
770.0	3.594
771.0	2.234
772.0	3.910
773.0	3.064
774.0	1.329
775.0	-0.511
776.0	3.128
777.0	2.733
778.0	1.438
779.0	2.460
780.0	0.119

Sample:	'wa-5(EM)
File name:	50.FDS
Run Date:	'15:34:50, 07/11/2024
Operator:	WXH
Comment:	'

Instrument
Model:	F-4600 FL Spectrophotometer
Serial Number:	3080-002
ROM Version:	5J24000 02

Instrument Parameters
Measurement type:	Wavelength scan
Scan mode:	Emission
Data mode:	Fluorescence
EX WL:	460.0 nm
EM  Start WL:	480.0 nm
EM  End WL:	780.0 nm
Scan speed:	1200 nm/min
Delay:	0.0 s
EX Slit:	2.5 nm
EM Slit:	2.5 nm
PMT Voltage:	600 V
Response:	Auto 
Corrected spectra:	Off
Shutter control:	On

Peak integration
Integration method:	Rectangular
Sensitivity:	1
Threshold:	1.000

Peaks
No.	Valley(nm)	Valley(Data)
1	482.0	93.14
2	485.0	87.57
3	491.2	127.6
4	497.2	186.9
5	513.4	409.1
6	515.8	413.8
7	521.2	426.4
8	524.4	401.9
9	527.0	408.7
10	537.2	351.1
11	539.8	348.6
12	541.6	347.8
13	544.6	348.1
14	547.6	330.1
15	550.0	319.5
16	552.6	321.2
17	554.2	324.0
18	557.4	283.9
19	560.6	274.7
20	567.4	247.9
21	571.4	228.5
22	578.8	185.3
23	581.4	170.6
24	586.6	140.7
25	590.0	147.4
26	591.8	140.4
27	595.4	120.1
28	601.8	98.45
29	605.4	92.42
30	609.4	80.36
31	612.2	72.17
32	614.8	68.60
33	616.4	72.29
34	621.8	58.17
35	625.4	44.58
36	634.2	32.58
37	637.4	34.35
38	641.4	28.41
39	644.2	30.83
40	645.6	29.88
41	649.4	23.61
42	653.2	22.97
43	657.2	17.82
44	660.0	17.14
45	662.2	14.91
46	664.8	15.04
47	668.8	11.44
48	670.6	11.58
49	673.2	12.06
50	679.4	6.541
51	684.4	7.951
52	687.2	8.891
53	689.8	7.043
54	693.6	2.530
55	696.6	3.922
56	699.4	3.751
57	701.2	2.986
58	707.0	2.795
59	709.4	3.925
60	711.0	3.929
61	714.6	3.204
62	716.8	4.460
63	719.0	2.993
64	722.0	2.277
65	723.6	3.024
66	725.2	1.283
67	728.8	1.921
68	732.6	2.930
69	735.4	2.522
70	737.0	3.391
71	739.0	1.206
72	740.8	0.890
73	744.6	0.527
74	750.0	0.497
75	756.0	1.657
76	758.2	1.265
77	763.0	0.902
78	766.8	0.188
79	771.2	-0.304
80	774.2	0.914
81	776.0	0.843
82	780.0	0.471

Data Points
nm	Data
480.0	97.57
481.0	114.1
482.0	93.14
483.0	101.2
484.0	105.3
485.0	87.57
486.0	98.94
487.0	102.2
488.0	117.5
489.0	131.7
490.0	138.9
491.0	135.8
492.0	142.1
493.0	146.7
494.0	180.9
495.0	186.8
496.0	189.5
497.0	190.8
498.0	212.8
499.0	228.4
500.0	257.3
501.0	266.0
502.0	273.8
503.0	302.9
504.0	300.5
505.0	308.4
506.0	352.3
507.0	364.8
508.0	360.2
509.0	400.0
510.0	406.8
511.0	411.2
512.0	441.1
513.0	425.8
514.0	423.7
515.0	436.7
516.0	425.6
517.0	434.7
518.0	453.8
519.0	440.5
520.0	439.1
521.0	439.8
522.0	441.9
523.0	418.9
524.0	405.9
525.0	438.0
526.0	420.7
527.0	408.7
528.0	414.8
529.0	432.2
530.0	418.9
531.0	415.1
532.0	394.1
533.0	377.5
534.0	374.2
535.0	381.2
536.0	372.7
537.0	355.9
538.0	371.8
539.0	369.7
540.0	371.3
541.0	361.6
542.0	354.4
543.0	359.4
544.0	350.6
545.0	354.7
546.0	350.6
547.0	357.7
548.0	330.5
549.0	340.2
550.0	319.5
551.0	344.5
552.0	327.6
553.0	343.4
554.0	332.0
555.0	345.9
556.0	320.4
557.0	296.9
558.0	299.9
559.0	300.3
560.0	299.4
561.0	278.3
562.0	308.1
563.0	289.3
564.0	284.4
565.0	272.3
566.0	254.6
567.0	266.2
568.0	270.8
569.0	260.6
570.0	244.9
571.0	237.8
572.0	233.6
573.0	237.2
574.0	223.1
575.0	214.3
576.0	218.9
577.0	197.0
578.0	199.5
579.0	188.3
580.0	191.6
581.0	179.8
582.0	192.3
583.0	181.4
584.0	162.8
585.0	165.6
586.0	154.9
587.0	150.7
588.0	163.7
589.0	167.5
590.0	147.4
591.0	149.5
592.0	140.4
593.0	152.9
594.0	135.4
595.0	129.4
596.0	129.0
597.0	135.2
598.0	119.6
599.0	127.7
600.0	117.3
601.0	108.7
602.0	105.3
603.0	108.2
604.0	107.7
605.0	100.5
606.0	100.8
607.0	96.84
608.0	95.73
609.0	83.19
610.0	92.50
611.0	100.7
612.0	76.78
613.0	82.20
614.0	78.76
615.0	70.18
616.0	72.95
617.0	72.93
618.0	71.00
619.0	70.01
620.0	65.26
621.0	66.77
622.0	61.09
623.0	63.10
624.0	59.17
625.0	48.43
626.0	53.00
627.0	54.69
628.0	56.74
629.0	67.55
630.0	48.80
631.0	47.03
632.0	48.64
633.0	43.33
634.0	35.22
635.0	33.60
636.0	37.43
637.0	37.76
638.0	36.02
639.0	38.47
640.0	34.87
641.0	33.47
642.0	36.46
643.0	33.43
644.0	31.03
645.0	34.19
646.0	35.43
647.0	32.60
648.0	28.40
649.0	26.53
650.0	26.90
651.0	28.20
652.0	28.02
653.0	25.69
654.0	24.36
655.0	23.82
656.0	22.57
657.0	18.01
658.0	22.23
659.0	17.17
660.0	17.14
661.0	21.00
662.0	17.18
663.0	19.05
664.0	22.65
665.0	15.15
666.0	18.97
667.0	17.82
668.0	15.23
669.0	15.08
670.0	16.28
671.0	13.73
672.0	14.03
673.0	13.94
674.0	13.35
675.0	14.65
676.0	11.51
677.0	11.07
678.0	6.983
679.0	7.337
680.0	11.67
681.0	15.52
682.0	10.89
683.0	9.876
684.0	11.43
685.0	11.04
686.0	10.35
687.0	11.77
688.0	10.13
689.0	11.85
690.0	8.010
691.0	8.545
692.0	6.171
693.0	5.090
694.0	4.898
695.0	6.037
696.0	8.186
697.0	6.216
698.0	6.701
699.0	4.494
700.0	6.378
701.0	5.150
702.0	5.248
703.0	8.997
704.0	8.346
705.0	5.498
706.0	5.246
707.0	2.795
708.0	7.201
709.0	6.656
710.0	4.900
711.0	3.929
712.0	5.216
713.0	5.405
714.0	3.326
715.0	3.793
716.0	7.563
717.0	4.931
718.0	6.286
719.0	2.993
720.0	3.993
721.0	3.810
722.0	2.277
723.0	5.807
724.0	5.453
725.0	2.187
726.0	3.937
727.0	3.711
728.0	3.233
729.0	2.742
730.0	4.286
731.0	4.555
732.0	5.364
733.0	3.945
734.0	2.970
735.0	2.830
736.0	4.495
737.0	3.391
738.0	3.861
739.0	1.206
740.0	1.905
741.0	1.286
742.0	1.580
743.0	3.111
744.0	2.309
745.0	0.873
746.0	5.233
747.0	5.952
748.0	2.809
749.0	2.330
750.0	0.497
751.0	3.088
752.0	2.523
753.0	4.104
754.0	4.639
755.0	3.768
756.0	1.657
757.0	2.927
758.0	1.313
759.0	2.701
760.0	3.511
761.0	1.899
762.0	2.111
763.0	0.902
764.0	2.083
765.0	2.206
766.0	2.323
767.0	0.366
768.0	2.269
769.0	2.597
770.0	2.025
771.0	0.004
772.0	2.125
773.0	3.654
774.0	1.534
775.0	1.791
776.0	0.843
777.0	1.625
778.0	0.314
779.0	3.280
780.0	0.471

Sample:	'wa-6(EM)
File name:	50.FDS
Run Date:	'15:35:20, 07/11/2024
Operator:	WXH
Comment:	'

Instrument
Model:	F-4600 FL Spectrophotometer
Serial Number:	3080-002
ROM Version:	5J24000 02

Instrument Parameters
Measurement type:	Wavelength scan
Scan mode:	Emission
Data mode:	Fluorescence
EX WL:	460.0 nm
EM  Start WL:	480.0 nm
EM  End WL:	780.0 nm
Scan speed:	1200 nm/min
Delay:	0.0 s
EX Slit:	2.5 nm
EM Slit:	2.5 nm
PMT Voltage:	600 V
Response:	Auto 
Corrected spectra:	Off
Shutter control:	On

Peak integration
Integration method:	Rectangular
Sensitivity:	1
Threshold:	1.000

Peaks
No.	Valley(nm)	Valley(Data)
1	483.6	93.66
2	486.2	95.40
3	489.6	114.5
4	509.8	372.6
5	512.8	414.5
6	515.6	420.7
7	521.0	422.1
8	523.6	421.4
9	526.6	415.1
10	532.4	364.1
11	536.6	370.1
12	539.4	354.0
13	543.6	349.7
14	549.2	312.2
15	552.2	311.5
16	554.8	316.8
17	556.8	309.5
18	558.8	288.2
19	562.0	275.6
20	565.6	266.2
21	570.4	223.7
22	577.0	190.5
23	580.8	173.0
24	584.2	162.0
25	592.8	135.6
26	595.6	130.7
27	599.4	101.5
28	602.0	98.65
29	605.2	93.60
30	610.4	80.21
31	611.4	79.61
32	616.8	70.30
33	621.2	62.57
34	625.2	54.17
35	629.6	45.18
36	631.4	46.25
37	634.2	43.83
38	638.0	37.32
39	640.6	30.22
40	644.2	25.33
41	647.6	22.56
42	649.2	20.00
43	656.4	18.10
44	659.4	14.76
45	665.2	17.95
46	668.2	12.35
47	672.0	8.034
48	676.4	9.093
49	679.0	9.444
50	681.4	9.618
51	685.2	6.326
52	690.0	4.443
53	696.0	6.212
54	697.4	5.131
55	699.8	3.804
56	702.6	2.101
57	705.0	2.806
58	706.6	4.561
59	709.4	4.409
60	714.6	2.392
61	719.6	3.270
62	724.0	1.547
63	726.8	1.206
64	731.8	2.194
65	735.4	1.186
66	737.6	1.567
67	742.2	0.923
68	744.2	0.409
69	746.0	-0.055
70	752.0	1.869
71	756.2	0.792
72	759.0	0.544
73	762.6	2.862
74	765.0	1.330
75	773.2	2.308
76	774.8	1.714
77	777.6	0.904

Data Points
nm	Data
480.0	91.03
481.0	102.3
482.0	101.1
483.0	99.15
484.0	102.9
485.0	112.3
486.0	97.84
487.0	113.2
488.0	115.6
489.0	118.2
490.0	122.6
491.0	129.8
492.0	138.3
493.0	152.7
494.0	162.8
495.0	166.9
496.0	179.0
497.0	190.6
498.0	216.3
499.0	237.5
500.0	231.1
501.0	248.6
502.0	273.7
503.0	307.1
504.0	302.9
505.0	329.8
506.0	363.0
507.0	353.5
508.0	372.8
509.0	397.8
510.0	387.0
511.0	403.4
512.0	432.0
513.0	418.4
514.0	439.5
515.0	429.9
516.0	424.1
517.0	442.6
518.0	457.3
519.0	433.8
520.0	433.1
521.0	422.1
522.0	447.8
523.0	441.8
524.0	437.7
525.0	442.1
526.0	429.5
527.0	424.8
528.0	421.9
529.0	430.1
530.0	423.4
531.0	395.6
532.0	383.5
533.0	365.7
534.0	405.9
535.0	383.8
536.0	375.9
537.0	381.7
538.0	384.4
539.0	387.9
540.0	377.2
541.0	383.8
542.0	373.3
543.0	369.8
544.0	356.9
545.0	361.7
546.0	347.7
547.0	353.3
548.0	332.7
549.0	323.2
550.0	330.5
551.0	333.1
552.0	320.5
553.0	329.0
554.0	351.5
555.0	321.9
556.0	323.9
557.0	322.0
558.0	321.0
559.0	296.9
560.0	299.2
561.0	293.4
562.0	275.6
563.0	290.7
564.0	297.2
565.0	291.2
566.0	274.5
567.0	282.3
568.0	265.1
569.0	243.0
570.0	237.8
571.0	237.6
572.0	238.1
573.0	239.5
574.0	225.8
575.0	203.9
576.0	215.9
577.0	190.5
578.0	195.7
579.0	197.5
580.0	188.9
581.0	176.5
582.0	185.9
583.0	178.5
584.0	162.7
585.0	179.9
586.0	165.7
587.0	160.9
588.0	148.6
589.0	156.9
590.0	155.7
591.0	137.7
592.0	153.3
593.0	140.9
594.0	140.6
595.0	137.0
596.0	134.2
597.0	130.1
598.0	132.5
599.0	113.9
600.0	115.7
601.0	115.9
602.0	98.65
603.0	117.3
604.0	97.76
605.0	95.68
606.0	99.20
607.0	96.30
608.0	97.03
609.0	90.10
610.0	84.56
611.0	90.17
612.0	80.54
613.0	91.06
614.0	82.67
615.0	77.58
616.0	78.07
617.0	71.25
618.0	77.54
619.0	81.41
620.0	72.44
621.0	68.32
622.0	68.18
623.0	75.83
624.0	63.17
625.0	55.51
626.0	65.89
627.0	57.57
628.0	62.09
629.0	51.17
630.0	48.17
631.0	51.46
632.0	48.27
633.0	52.67
634.0	46.84
635.0	51.74
636.0	39.20
637.0	34.88
638.0	37.32
639.0	37.94
640.0	39.41
641.0	35.95
642.0	35.02
643.0	33.46
644.0	26.99
645.0	32.80
646.0	30.46
647.0	27.70
648.0	26.17
649.0	25.27
650.0	23.90
651.0	27.53
652.0	25.01
653.0	25.02
654.0	20.17
655.0	22.16
656.0	23.11
657.0	20.32
658.0	21.28
659.0	20.14
660.0	18.97
661.0	17.67
662.0	19.26
663.0	24.51
664.0	18.30
665.0	20.97
666.0	21.28
667.0	18.07
668.0	16.58
669.0	13.68
670.0	12.84
671.0	13.49
672.0	8.034
673.0	11.44
674.0	8.261
675.0	12.12
676.0	10.71
677.0	10.73
678.0	9.915
679.0	9.444
680.0	10.98
681.0	10.44
682.0	13.90
683.0	8.947
684.0	8.437
685.0	6.662
686.0	8.020
687.0	12.10
688.0	11.24
689.0	8.376
690.0	4.443
691.0	7.306
692.0	8.097
693.0	9.011
694.0	10.62
695.0	7.441
696.0	6.212
697.0	6.987
698.0	7.147
699.0	8.011
700.0	4.176
701.0	4.815
702.0	4.152
703.0	7.450
704.0	6.556
705.0	2.806
706.0	6.607
707.0	4.954
708.0	4.912
709.0	5.974
710.0	9.465
711.0	7.873
712.0	5.620
713.0	7.384
714.0	3.890
715.0	5.699
716.0	6.378
717.0	8.110
718.0	5.352
719.0	4.350
720.0	5.104
721.0	6.619
722.0	3.103
723.0	3.706
724.0	1.547
725.0	3.003
726.0	4.728
727.0	2.723
728.0	3.517
729.0	7.347
730.0	4.572
731.0	4.817
732.0	2.251
733.0	2.847
734.0	1.282
735.0	3.720
736.0	3.220
737.0	3.061
738.0	2.364
739.0	5.559
740.0	1.662
741.0	2.729
742.0	2.436
743.0	2.182
744.0	0.830
745.0	4.077
746.0	-0.055
747.0	2.866
748.0	2.312
749.0	1.374
750.0	3.584
751.0	4.516
752.0	1.869
753.0	6.486
754.0	2.571
755.0	2.076
756.0	1.732
757.0	1.675
758.0	2.580
759.0	0.544
760.0	2.593
761.0	3.737
762.0	3.550
763.0	4.221
764.0	3.183
765.0	1.330
766.0	2.801
767.0	6.209
768.0	6.297
769.0	4.432
770.0	2.967
771.0	4.302
772.0	3.505
773.0	2.496
774.0	5.625
775.0	3.100
776.0	4.269
777.0	1.818
778.0	2.552
779.0	2.366
780.0	2.502

Sample:	'wa-7(EM)
File name:	50.FDS
Run Date:	'15:35:50, 07/11/2024
Operator:	WXH
Comment:	'

Instrument
Model:	F-4600 FL Spectrophotometer
Serial Number:	3080-002
ROM Version:	5J24000 02

Instrument Parameters
Measurement type:	Wavelength scan
Scan mode:	Emission
Data mode:	Fluorescence
EX WL:	460.0 nm
EM  Start WL:	480.0 nm
EM  End WL:	780.0 nm
Scan speed:	1200 nm/min
Delay:	0.0 s
EX Slit:	2.5 nm
EM Slit:	2.5 nm
PMT Voltage:	600 V
Response:	Auto 
Corrected spectra:	Off
Shutter control:	On

Peak integration
Integration method:	Rectangular
Sensitivity:	1
Threshold:	1.000

Peaks
No.	Valley(nm)	Valley(Data)
1	482.6	94.61
2	485.6	99.50
3	492.6	127.2
4	509.2	383.6
5	515.2	416.7
6	520.6	413.9
7	527.4	410.1
8	529.0	408.9
9	532.4	411.1
10	536.6	351.9
11	542.0	341.5
12	545.4	334.0
13	549.0	333.7
14	551.4	309.0
15	557.8	287.8
16	567.0	241.9
17	571.4	233.3
18	575.6	192.4
19	580.2	170.3
20	582.8	165.4
21	586.8	145.0
22	590.2	140.7
23	595.2	123.0
24	599.2	112.7
25	602.6	101.3
26	605.6	87.42
27	612.6	82.72
28	617.2	65.80
29	620.4	58.54
30	622.6	55.80
31	630.8	49.24
32	636.6	37.42
33	644.0	29.52
34	648.2	23.44
35	652.0	21.18
36	657.8	11.26
37	659.8	12.80
38	663.0	14.29
39	665.4	16.76
40	669.0	11.57
41	672.8	12.12
42	675.2	9.333
43	679.4	6.203
44	682.2	8.393
45	684.8	7.206
46	688.2	6.142
47	690.8	6.294
48	693.4	7.837
49	695.2	6.152
50	696.6	5.454
51	703.0	3.980
52	704.6	3.023
53	707.0	3.224
54	711.4	2.030
55	716.0	2.556
56	720.2	1.718
57	723.2	2.064
58	726.6	3.629
59	729.8	1.208
60	733.6	2.167
61	740.4	-0.028
62	742.0	0.152
63	746.6	0.901
64	750.0	1.401
65	753.2	-0.400
66	755.4	1.397
67	759.0	-0.067
68	763.8	2.049
69	766.6	1.205
70	769.4	1.199
71	771.0	1.095
72	774.2	1.088
73	777.6	1.867

Data Points
nm	Data
480.0	100.2
481.0	95.82
482.0	104.5
483.0	100.2
484.0	113.6
485.0	106.9
486.0	107.0
487.0	103.4
488.0	113.4
489.0	112.8
490.0	109.2
491.0	133.2
492.0	134.9
493.0	139.8
494.0	152.5
495.0	176.9
496.0	198.3
497.0	198.2
498.0	199.9
499.0	222.7
500.0	255.1
501.0	247.5
502.0	263.4
503.0	283.8
504.0	313.3
505.0	330.7
506.0	335.3
507.0	360.7
508.0	368.2
509.0	390.2
510.0	390.3
511.0	404.3
512.0	431.4
513.0	432.7
514.0	424.1
515.0	443.0
516.0	438.0
517.0	434.3
518.0	463.0
519.0	453.5
520.0	438.8
521.0	418.1
522.0	428.3
523.0	432.4
524.0	445.0
525.0	414.0
526.0	429.1
527.0	412.4
528.0	421.5
529.0	408.9
530.0	431.1
531.0	426.5
532.0	411.6
533.0	423.3
534.0	409.3
535.0	408.7
536.0	369.7
537.0	382.3
538.0	378.3
539.0	364.8
540.0	378.6
541.0	360.9
542.0	341.5
543.0	364.3
544.0	366.8
545.0	341.3
546.0	352.6
547.0	348.6
548.0	339.3
549.0	333.7
550.0	345.2
551.0	332.8
552.0	315.5
553.0	329.5
554.0	329.5
555.0	322.2
556.0	323.7
557.0	314.4
558.0	301.6
559.0	310.3
560.0	298.9
561.0	305.9
562.0	296.3
563.0	281.0
564.0	281.7
565.0	275.2
566.0	265.1
567.0	241.9
568.0	261.6
569.0	255.9
570.0	243.3
571.0	240.3
572.0	243.5
573.0	241.3
574.0	238.0
575.0	196.1
576.0	199.3
577.0	192.8
578.0	199.5
579.0	195.4
580.0	176.1
581.0	172.8
582.0	180.9
583.0	178.5
584.0	178.3
585.0	158.1
586.0	152.8
587.0	155.9
588.0	148.0
589.0	153.9
590.0	144.6
591.0	148.3
592.0	129.3
593.0	140.5
594.0	134.2
595.0	123.3
596.0	129.5
597.0	129.1
598.0	132.4
599.0	120.4
600.0	117.8
601.0	116.8
602.0	112.0
603.0	109.7
604.0	110.8
605.0	99.84
606.0	90.72
607.0	104.8
608.0	95.07
609.0	113.7
610.0	96.94
611.0	96.55
612.0	85.31
613.0	84.09
614.0	90.30
615.0	78.46
616.0	77.71
617.0	69.97
618.0	80.67
619.0	75.30
620.0	67.46
621.0	65.63
622.0	66.33
623.0	65.97
624.0	69.55
625.0	63.02
626.0	62.67
627.0	61.65
628.0	49.50
629.0	53.55
630.0	54.17
631.0	51.08
632.0	52.29
633.0	48.19
634.0	45.69
635.0	43.62
636.0	43.38
637.0	40.48
638.0	39.73
639.0	46.43
640.0	41.51
641.0	40.26
642.0	33.93
643.0	35.91
644.0	29.52
645.0	34.21
646.0	30.04
647.0	33.85
648.0	24.19
649.0	24.93
650.0	24.85
651.0	22.18
652.0	21.18
653.0	22.63
654.0	23.63
655.0	23.68
656.0	18.94
657.0	17.93
658.0	18.04
659.0	16.01
660.0	13.43
661.0	16.59
662.0	19.29
663.0	14.29
664.0	20.73
665.0	18.39
666.0	22.67
667.0	21.20
668.0	14.46
669.0	11.57
670.0	13.31
671.0	15.81
672.0	17.03
673.0	14.57
674.0	14.54
675.0	12.15
676.0	12.66
677.0	10.29
678.0	8.738
679.0	6.258
680.0	9.522
681.0	10.51
682.0	11.28
683.0	9.231
684.0	11.83
685.0	9.437
686.0	8.830
687.0	8.024
688.0	7.013
689.0	11.68
690.0	10.34
691.0	8.191
692.0	6.985
693.0	9.670
694.0	9.803
695.0	6.607
696.0	8.949
697.0	8.184
698.0	7.297
699.0	9.939
700.0	9.411
701.0	9.900
702.0	7.493
703.0	3.980
704.0	6.126
705.0	5.780
706.0	4.956
707.0	3.224
708.0	5.364
709.0	3.092
710.0	3.984
711.0	3.431
712.0	2.699
713.0	4.824
714.0	5.320
715.0	8.451
716.0	2.556
717.0	4.953
718.0	3.722
719.0	5.073
720.0	2.606
721.0	6.140
722.0	4.140
723.0	2.342
724.0	6.707
725.0	6.892
726.0	5.128
727.0	5.664
728.0	5.929
729.0	6.686
730.0	2.593
731.0	2.351
732.0	5.900
733.0	3.442
734.0	2.808
735.0	5.668
736.0	5.914
737.0	4.048
738.0	2.959
739.0	3.347
740.0	1.300
741.0	1.357
742.0	0.152
743.0	2.406
744.0	1.545
745.0	2.510
746.0	1.204
747.0	1.365
748.0	4.538
749.0	4.763
750.0	1.401
751.0	3.292
752.0	6.956
753.0	0.208
754.0	2.388
755.0	3.593
756.0	3.422
757.0	4.742
758.0	2.757
759.0	-0.067
760.0	1.194
761.0	4.484
762.0	2.748
763.0	3.226
764.0	3.682
765.0	4.533
766.0	1.879
767.0	1.904
768.0	1.254
769.0	2.233
770.0	2.757
771.0	1.095
772.0	1.903
773.0	2.841
774.0	1.187
775.0	1.609
776.0	4.847
777.0	3.050
778.0	2.246
779.0	4.960
780.0	6.404

Sample:	'wa-8(EM)
File name:	50.FDS
Run Date:	'15:36:21, 07/11/2024
Operator:	WXH
Comment:	'

Instrument
Model:	F-4600 FL Spectrophotometer
Serial Number:	3080-002
ROM Version:	5J24000 02

Instrument Parameters
Measurement type:	Wavelength scan
Scan mode:	Emission
Data mode:	Fluorescence
EX WL:	460.0 nm
EM  Start WL:	480.0 nm
EM  End WL:	780.0 nm
Scan speed:	1200 nm/min
Delay:	0.0 s
EX Slit:	2.5 nm
EM Slit:	2.5 nm
PMT Voltage:	600 V
Response:	Auto 
Corrected spectra:	Off
Shutter control:	On

Peak integration
Integration method:	Rectangular
Sensitivity:	1
Threshold:	1.000

Peaks
No.	Valley(nm)	Valley(Data)
1	484.2	86.43
2	488.8	102.2
3	492.6	134.9
4	500.0	225.1
5	506.8	334.8
6	514.4	413.4
7	520.2	427.1
8	522.4	414.4
9	524.8	411.2
10	531.6	387.7
11	533.4	370.8
12	535.6	382.2
13	540.8	345.6
14	542.4	335.7
15	545.4	333.3
16	548.4	318.2
17	550.4	316.7
18	554.2	313.1
19	555.8	306.6
20	565.4	251.6
21	569.4	233.4
22	572.2	219.8
23	573.6	213.7
24	577.4	172.9
25	583.0	156.8
26	586.4	138.9
27	590.8	139.6
28	593.6	129.7
29	598.0	105.1
30	604.6	101.6
31	611.2	75.09
32	613.2	78.62
33	620.4	66.29
34	622.2	65.59
35	624.8	54.33
36	629.2	49.78
37	632.6	43.72
38	636.8	33.32
39	642.0	27.94
40	645.0	28.45
41	649.2	24.97
42	652.0	22.33
43	656.6	17.19
44	659.0	18.98
45	661.4	15.25
46	666.8	14.14
47	673.8	10.14
48	675.0	9.722
49	680.8	8.410
50	683.2	4.916
51	688.8	6.122
52	690.0	4.788
53	693.8	4.046
54	696.2	5.032
55	702.2	3.818
56	704.6	2.050
57	706.6	3.347
58	709.8	2.719
59	713.2	4.195
60	715.0	3.057
61	719.2	1.106
62	725.6	2.992
63	731.2	1.649
64	735.8	2.227
65	739.6	1.211
66	742.8	1.659
67	746.8	1.151
68	750.6	0.587
69	755.8	1.489
70	759.0	1.434
71	761.0	1.459
72	764.8	-0.051
73	769.2	0.495
74	771.6	-0.067
75	776.8	0.766
76	778.0	0.321

Data Points
nm	Data
480.0	86.47
481.0	95.69
482.0	100.2
483.0	107.1
484.0	90.62
485.0	99.32
486.0	102.8
487.0	105.2
488.0	113.2
489.0	104.1
490.0	108.0
491.0	128.9
492.0	138.0
493.0	143.8
494.0	156.6
495.0	172.2
496.0	182.1
497.0	205.0
498.0	216.3
499.0	234.1
500.0	225.1
501.0	260.9
502.0	270.0
503.0	286.6
504.0	322.8
505.0	336.0
506.0	349.1
507.0	340.0
508.0	384.1
509.0	385.8
510.0	386.8
511.0	400.1
512.0	402.3
513.0	415.8
514.0	424.0
515.0	429.2
516.0	437.7
517.0	426.9
518.0	434.8
519.0	466.7
520.0	427.3
521.0	451.4
522.0	420.0
523.0	436.1
524.0	428.8
525.0	419.7
526.0	429.5
527.0	421.1
528.0	425.9
529.0	427.6
530.0	399.1
531.0	393.4
532.0	398.5
533.0	393.6
534.0	382.1
535.0	397.6
536.0	388.8
537.0	393.2
538.0	366.2
539.0	361.7
540.0	348.7
541.0	355.6
542.0	352.6
543.0	360.2
544.0	342.2
545.0	361.8
546.0	345.1
547.0	352.3
548.0	325.1
549.0	331.2
550.0	322.3
551.0	345.6
552.0	334.9
553.0	326.8
554.0	314.3
555.0	326.4
556.0	317.1
557.0	321.8
558.0	303.7
559.0	302.7
560.0	295.5
561.0	289.0
562.0	291.6
563.0	293.4
564.0	270.5
565.0	276.1
566.0	277.5
567.0	280.6
568.0	233.2
569.0	239.5
570.0	242.3
571.0	257.6
572.0	225.2
573.0	228.7
574.0	222.7
575.0	216.9
576.0	205.1
577.0	174.5
578.0	192.2
579.0	188.4
580.0	180.1
581.0	178.0
582.0	172.1
583.0	156.8
584.0	168.9
585.0	173.7
586.0	152.4
587.0	156.9
588.0	164.3
589.0	149.6
590.0	147.9
591.0	144.8
592.0	146.9
593.0	134.8
594.0	144.9
595.0	134.9
596.0	138.7
597.0	138.7
598.0	105.1
599.0	118.2
600.0	128.5
601.0	117.9
602.0	117.9
603.0	109.5
604.0	116.5
605.0	103.1
606.0	111.4
607.0	108.1
608.0	102.7
609.0	101.8
610.0	86.13
611.0	78.89
612.0	79.11
613.0	80.76
614.0	83.35
615.0	81.36
616.0	84.14
617.0	71.04
618.0	69.65
619.0	68.56
620.0	74.21
621.0	77.89
622.0	66.51
623.0	84.22
624.0	67.61
625.0	56.09
626.0	56.29
627.0	54.74
628.0	52.93
629.0	51.14
630.0	52.00
631.0	49.39
632.0	49.48
633.0	49.10
634.0	48.59
635.0	41.12
636.0	36.82
637.0	35.85
638.0	39.41
639.0	35.21
640.0	35.55
641.0	37.92
642.0	27.94
643.0	34.08
644.0	34.85
645.0	28.45
646.0	29.91
647.0	28.85
648.0	30.10
649.0	26.94
650.0	28.05
651.0	25.34
652.0	22.33
653.0	23.45
654.0	25.74
655.0	21.44
656.0	20.39
657.0	22.48
658.0	19.93
659.0	18.98
660.0	27.71
661.0	20.14
662.0	21.92
663.0	18.94
664.0	16.48
665.0	15.20
666.0	16.95
667.0	15.73
668.0	13.33
669.0	15.79
670.0	13.88
671.0	12.23
672.0	12.64
673.0	10.32
674.0	12.42
675.0	9.722
676.0	12.86
677.0	17.20
678.0	15.57
679.0	12.09
680.0	12.87
681.0	12.57
682.0	10.73
683.0	6.286
684.0	9.772
685.0	10.11
686.0	8.344
687.0	6.652
688.0	7.039
689.0	8.671
690.0	4.788
691.0	8.845
692.0	6.277
693.0	5.694
694.0	5.029
695.0	7.528
696.0	6.970
697.0	8.205
698.0	6.838
699.0	6.662
700.0	7.450
701.0	5.703
702.0	5.719
703.0	6.337
704.0	4.505
705.0	4.694
706.0	6.536
707.0	4.418
708.0	7.673
709.0	9.151
710.0	4.351
711.0	6.547
712.0	5.337
713.0	4.584
714.0	5.202
715.0	3.057
716.0	4.131
717.0	3.819
718.0	4.999
719.0	1.825
720.0	2.710
721.0	1.743
722.0	5.155
723.0	5.907
724.0	7.567
725.0	3.590
726.0	3.152
727.0	5.481
728.0	5.412
729.0	8.031
730.0	6.576
731.0	1.705
732.0	3.908
733.0	4.950
734.0	4.094
735.0	2.751
736.0	3.870
737.0	2.906
738.0	2.842
739.0	3.248
740.0	1.791
741.0	4.616
742.0	2.839
743.0	2.019
744.0	1.788
745.0	1.656
746.0	2.086
747.0	1.580
748.0	4.553
749.0	4.316
750.0	2.633
751.0	1.967
752.0	2.767
753.0	3.368
754.0	2.400
755.0	3.938
756.0	1.738
757.0	3.795
758.0	6.659
759.0	1.434
760.0	2.328
761.0	1.459
762.0	4.623
763.0	3.497
764.0	2.222
765.0	3.746
766.0	3.518
767.0	4.329
768.0	2.897
769.0	1.228
770.0	2.802
771.0	2.559
772.0	1.546
773.0	2.210
774.0	3.048
775.0	2.497
776.0	0.845
777.0	1.852
778.0	0.321
779.0	5.443
780.0	1.377

Sample:	'wa-9(EM)
File name:	50.FDS
Run Date:	'15:36:51, 07/11/2024
Operator:	WXH
Comment:	'

Instrument
Model:	F-4600 FL Spectrophotometer
Serial Number:	3080-002
ROM Version:	5J24000 02

Instrument Parameters
Measurement type:	Wavelength scan
Scan mode:	Emission
Data mode:	Fluorescence
EX WL:	460.0 nm
EM  Start WL:	480.0 nm
EM  End WL:	780.0 nm
Scan speed:	1200 nm/min
Delay:	0.0 s
EX Slit:	2.5 nm
EM Slit:	2.5 nm
PMT Voltage:	600 V
Response:	Auto 
Corrected spectra:	Off
Shutter control:	On

Peak integration
Integration method:	Rectangular
Sensitivity:	1
Threshold:	1.000

Peaks
No.	Valley(nm)	Valley(Data)
1	485.2	90.24
2	491.6	119.8
3	510.0	361.7
4	515.6	407.4
5	519.4	425.3
6	525.2	417.8
7	528.0	410.7
8	537.6	359.5
9	542.8	344.9
10	545.6	342.3
11	548.0	322.1
12	551.0	324.9
13	553.0	317.0
14	554.8	312.3
15	555.8	302.1
16	563.8	279.4
17	567.8	245.0
18	569.6	237.4
19	573.4	216.7
20	578.4	190.4
21	582.0	169.2
22	583.8	165.9
23	592.4	126.0
24	595.8	120.9
25	597.8	114.2
26	601.6	106.3
27	603.2	98.90
28	606.4	99.32
29	609.6	85.18
30	612.2	84.87
31	614.4	75.80
32	622.4	63.69
33	623.6	56.10
34	626.4	52.73
35	628.6	50.71
36	630.4	38.93
37	638.6	31.66
38	640.0	32.47
39	642.2	30.96
40	646.2	25.22
41	648.2	26.75
42	650.0	24.00
43	657.8	20.12
44	660.6	16.42
45	664.2	14.11
46	668.2	14.76
47	670.8	12.41
48	674.8	8.826
49	678.0	9.668
50	682.2	6.085
51	684.4	5.821
52	688.2	6.920
53	690.6	8.107
54	693.0	5.556
55	694.2	5.276
56	697.6	6.028
57	703.2	2.732
58	705.8	3.613
59	707.4	4.019
60	711.2	0.509
61	713.2	2.254
62	715.6	2.859
63	720.8	2.395
64	728.8	1.203
65	734.2	1.477
66	744.2	0.059
67	745.8	1.384
68	750.2	1.290
69	756.4	0.119
70	760.8	0.365
71	763.0	3.359
72	767.0	1.068
73	771.6	0.440
74	777.0	0.714

Data Points
nm	Data
480.0	99.80
481.0	98.61
482.0	96.37
483.0	106.4
484.0	110.8
485.0	96.55
486.0	91.73
487.0	104.4
488.0	105.4
489.0	105.7
490.0	117.8
491.0	129.6
492.0	128.1
493.0	145.7
494.0	151.5
495.0	166.2
496.0	191.7
497.0	193.7
498.0	229.4
499.0	228.3
500.0	245.7
501.0	267.3
502.0	275.2
503.0	279.4
504.0	309.4
505.0	331.4
506.0	334.7
507.0	348.4
508.0	367.7
509.0	384.1
510.0	361.7
511.0	391.2
512.0	422.8
513.0	423.4
514.0	444.2
515.0	430.2
516.0	408.3
517.0	433.6
518.0	441.9
519.0	442.5
520.0	429.2
521.0	446.8
522.0	452.3
523.0	443.0
524.0	431.4
525.0	418.1
526.0	437.8
527.0	414.5
528.0	410.7
529.0	418.1
530.0	414.2
531.0	418.6
532.0	389.8
533.0	394.9
534.0	389.9
535.0	389.8
536.0	371.1
537.0	366.5
538.0	382.3
539.0	384.3
540.0	369.3
541.0	369.5
542.0	356.5
543.0	358.7
544.0	363.4
545.0	364.0
546.0	357.0
547.0	359.4
548.0	322.1
549.0	349.0
550.0	345.3
551.0	324.9
552.0	326.4
553.0	317.0
554.0	314.2
555.0	324.7
556.0	310.0
557.0	313.4
558.0	300.0
559.0	292.2
560.0	305.7
561.0	284.4
562.0	290.0
563.0	283.1
564.0	287.6
565.0	292.1
566.0	276.3
567.0	259.3
568.0	252.8
569.0	248.8
570.0	246.4
571.0	256.5
572.0	241.2
573.0	223.8
574.0	229.3
575.0	227.6
576.0	207.1
577.0	210.9
578.0	196.9
579.0	195.6
580.0	198.5
581.0	183.0
582.0	169.2
583.0	183.5
584.0	170.7
585.0	171.3
586.0	179.8
587.0	160.2
588.0	157.0
589.0	146.1
590.0	150.6
591.0	148.2
592.0	133.9
593.0	131.7
594.0	142.1
595.0	134.2
596.0	131.3
597.0	125.4
598.0	120.8
599.0	123.7
600.0	118.3
601.0	109.3
602.0	113.9
603.0	107.3
604.0	104.2
605.0	106.5
606.0	106.1
607.0	105.2
608.0	98.55
609.0	91.35
610.0	95.71
611.0	100.8
612.0	88.39
613.0	93.83
614.0	81.36
615.0	82.26
616.0	80.84
617.0	75.13
618.0	71.20
619.0	77.40
620.0	72.77
621.0	72.85
622.0	64.57
623.0	70.51
624.0	59.66
625.0	63.09
626.0	60.21
627.0	57.48
628.0	56.98
629.0	55.64
630.0	47.00
631.0	41.06
632.0	39.92
633.0	44.18
634.0	43.69
635.0	42.30
636.0	41.04
637.0	37.93
638.0	33.33
639.0	39.23
640.0	32.47
641.0	34.06
642.0	33.24
643.0	33.26
644.0	34.05
645.0	28.19
646.0	28.86
647.0	31.56
648.0	28.88
649.0	31.48
650.0	24.00
651.0	25.57
652.0	24.61
653.0	32.46
654.0	23.45
655.0	21.79
656.0	23.56
657.0	21.72
658.0	20.99
659.0	25.11
660.0	19.81
661.0	19.74
662.0	18.19
663.0	18.21
664.0	17.19
665.0	17.35
666.0	15.46
667.0	21.00
668.0	16.25
669.0	16.52
670.0	18.89
671.0	15.44
672.0	17.96
673.0	13.96
674.0	10.52
675.0	11.02
676.0	12.86
677.0	14.00
678.0	9.668
679.0	14.91
680.0	8.100
681.0	7.394
682.0	8.743
683.0	12.36
684.0	6.965
685.0	9.411
686.0	9.498
687.0	11.24
688.0	7.938
689.0	7.481
690.0	9.175
691.0	10.87
692.0	7.334
693.0	5.556
694.0	5.830
695.0	8.575
696.0	10.33
697.0	10.02
698.0	10.76
699.0	9.394
700.0	8.883
701.0	6.297
702.0	3.281
703.0	3.486
704.0	4.244
705.0	6.134
706.0	6.446
707.0	4.902
708.0	7.443
709.0	4.292
710.0	4.123
711.0	0.963
712.0	4.112
713.0	3.864
714.0	5.079
715.0	3.571
716.0	5.871
717.0	4.647
718.0	2.982
719.0	3.802
720.0	4.284
721.0	2.686
722.0	4.691
723.0	5.758
724.0	6.067
725.0	5.862
726.0	5.379
727.0	5.707
728.0	2.420
729.0	1.424
730.0	4.875
731.0	4.817
732.0	4.295
733.0	5.247
734.0	2.553
735.0	2.971
736.0	2.276
737.0	4.392
738.0	2.530
739.0	4.010
740.0	3.595
741.0	4.303
742.0	3.193
743.0	2.808
744.0	1.344
745.0	2.949
746.0	2.439
747.0	4.780
748.0	4.046
749.0	2.251
750.0	2.785
751.0	1.919
752.0	1.688
753.0	3.463
754.0	3.438
755.0	4.182
756.0	2.289
757.0	3.384
758.0	4.617
759.0	4.590
760.0	2.469
761.0	2.717
762.0	4.737
763.0	3.359
764.0	5.073
765.0	3.915
766.0	4.338
767.0	1.068
768.0	3.782
769.0	3.419
770.0	2.969
771.0	1.341
772.0	1.156
773.0	1.768
774.0	5.100
775.0	3.317
776.0	2.381
777.0	0.714
778.0	1.806
779.0	3.684
780.0	2.838

Sample:	'wa-10(EM)
File name:	50.FDS
Run Date:	'15:37:21, 07/11/2024
Operator:	WXH
Comment:	'

Instrument
Model:	F-4600 FL Spectrophotometer
Serial Number:	3080-002
ROM Version:	5J24000 02

Instrument Parameters
Measurement type:	Wavelength scan
Scan mode:	Emission
Data mode:	Fluorescence
EX WL:	460.0 nm
EM  Start WL:	480.0 nm
EM  End WL:	780.0 nm
Scan speed:	1200 nm/min
Delay:	0.0 s
EX Slit:	2.5 nm
EM Slit:	2.5 nm
PMT Voltage:	600 V
Response:	Auto 
Corrected spectra:	Off
Shutter control:	On

Peak integration
Integration method:	Rectangular
Sensitivity:	1
Threshold:	1.000

Peaks
No.	Valley(nm)	Valley(Data)
1	487.0	105.8
2	492.4	134.2
3	496.2	168.4
4	501.6	259.4
5	515.2	406.9
6	519.6	429.5
7	524.8	401.2
8	527.6	393.8
9	530.6	377.6
10	536.8	365.6
11	539.4	338.1
12	541.2	356.6
13	547.6	328.6
14	555.4	305.5
15	560.8	263.5
16	565.8	258.6
17	568.2	247.2
18	570.8	223.6
19	575.6	196.9
20	578.8	185.7
21	584.6	167.2
22	592.6	124.4
23	600.4	103.1
24	603.8	103.2
25	606.2	85.86
26	611.2	81.98
27	613.0	80.29
28	620.4	62.54
29	622.2	56.90
30	627.8	47.31
31	630.8	38.78
32	634.2	40.94
33	636.6	31.92
34	640.0	34.58
35	644.4	27.57
36	646.2	23.41
37	650.4	30.22
38	654.0	19.91
39	657.2	18.17
40	662.4	16.78
41	666.0	12.08
42	669.6	12.82
43	672.0	11.99
44	676.2	9.940
45	678.8	8.630
46	681.2	9.539
47	685.2	5.581
48	689.8	3.966
49	694.2	7.511
50	696.0	4.111
51	698.0	3.884
52	701.0	4.215
53	703.4	4.629
54	707.4	2.113
55	710.2	2.805
56	713.2	2.672
57	721.6	1.204
58	725.8	2.782
59	728.4	2.826
60	729.6	2.588
61	735.6	0.888
62	738.0	2.521
63	739.4	1.232
64	743.4	1.122
65	748.2	0.194
66	752.4	1.618
67	755.0	2.601
68	761.2	0.987
69	769.2	0.056
70	773.8	1.305
71	775.8	1.732
72	777.4	0.731

Data Points
nm	Data
480.0	97.94
481.0	86.32
482.0	94.34
483.0	96.56
484.0	98.43
485.0	103.0
486.0	106.5
487.0	105.8
488.0	121.6
489.0	121.4
490.0	127.1
491.0	130.1
492.0	141.5
493.0	136.5
494.0	148.2
495.0	177.4
496.0	168.7
497.0	184.4
498.0	212.0
499.0	238.8
500.0	266.7
501.0	271.1
502.0	268.4
503.0	297.5
504.0	309.7
505.0	328.2
506.0	347.6
507.0	343.5
508.0	362.7
509.0	401.1
510.0	390.3
511.0	413.5
512.0	432.4
513.0	430.8
514.0	436.8
515.0	415.5
516.0	435.2
517.0	458.9
518.0	458.8
519.0	466.7
520.0	432.4
521.0	442.5
522.0	445.3
523.0	422.3
524.0	424.4
525.0	409.9
526.0	414.8
527.0	409.0
528.0	413.0
529.0	442.8
530.0	422.6
531.0	399.1
532.0	407.8
533.0	406.4
534.0	389.5
535.0	371.4
536.0	376.8
537.0	377.8
538.0	360.5
539.0	366.0
540.0	364.0
541.0	369.3
542.0	383.6
543.0	372.0
544.0	359.1
545.0	349.6
546.0	347.7
547.0	345.0
548.0	340.5
549.0	342.3
550.0	359.9
551.0	348.7
552.0	343.6
553.0	332.0
554.0	324.8
555.0	321.7
556.0	324.4
557.0	334.8
558.0	315.3
559.0	303.6
560.0	285.4
561.0	276.2
562.0	286.2
563.0	293.3
564.0	268.0
565.0	259.2
566.0	264.2
567.0	274.0
568.0	255.3
569.0	274.9
570.0	248.5
571.0	227.1
572.0	235.7
573.0	219.3
574.0	221.2
575.0	220.8
576.0	197.4
577.0	207.3
578.0	197.2
579.0	191.3
580.0	193.2
581.0	203.7
582.0	202.4
583.0	182.9
584.0	174.8
585.0	169.1
586.0	186.4
587.0	165.4
588.0	174.4
589.0	162.5
590.0	152.0
591.0	142.3
592.0	130.8
593.0	129.9
594.0	138.3
595.0	131.3
596.0	136.6
597.0	129.0
598.0	119.0
599.0	116.9
600.0	106.9
601.0	109.0
602.0	116.3
603.0	106.6
604.0	104.4
605.0	101.4
606.0	87.05
607.0	101.1
608.0	97.26
609.0	97.57
610.0	85.11
611.0	85.53
612.0	90.22
613.0	80.29
614.0	91.75
615.0	84.80
616.0	76.92
617.0	79.57
618.0	74.66
619.0	73.20
620.0	70.93
621.0	75.03
622.0	57.66
623.0	63.28
624.0	73.55
625.0	65.68
626.0	60.51
627.0	55.54
628.0	53.07
629.0	49.23
630.0	42.61
631.0	44.01
632.0	48.40
633.0	42.47
634.0	42.89
635.0	47.87
636.0	36.86
637.0	38.31
638.0	41.85
639.0	40.51
640.0	34.58
641.0	40.49
642.0	30.96
643.0	32.36
644.0	31.90
645.0	32.32
646.0	26.93
647.0	25.02
648.0	34.12
649.0	36.19
650.0	32.58
651.0	39.87
652.0	29.55
653.0	22.86
654.0	19.91
655.0	21.60
656.0	24.05
657.0	20.11
658.0	22.91
659.0	21.45
660.0	18.19
661.0	17.00
662.0	17.10
663.0	19.61
664.0	20.92
665.0	16.31
666.0	12.08
667.0	14.69
668.0	15.81
669.0	17.36
670.0	17.22
671.0	20.36
672.0	11.99
673.0	16.10
674.0	14.20
675.0	12.99
676.0	11.49
677.0	13.83
678.0	12.75
679.0	10.19
680.0	12.51
681.0	11.86
682.0	13.36
683.0	12.91
684.0	8.261
685.0	7.980
686.0	5.850
687.0	8.713
688.0	7.154
689.0	5.174
690.0	4.431
691.0	9.743
692.0	7.184
693.0	8.682
694.0	7.709
695.0	8.280
696.0	4.111
697.0	9.906
698.0	3.884
699.0	6.346
700.0	6.307
701.0	4.215
702.0	4.729
703.0	6.569
704.0	6.175
705.0	7.458
706.0	4.429
707.0	2.496
708.0	3.223
709.0	4.501
710.0	3.316
711.0	3.130
712.0	3.800
713.0	4.302
714.0	4.582
715.0	5.132
716.0	3.593
717.0	3.951
718.0	3.743
719.0	3.357
720.0	3.229
721.0	3.008
722.0	3.225
723.0	6.739
724.0	4.495
725.0	4.657
726.0	3.944
727.0	4.418
728.0	3.910
729.0	5.440
730.0	3.960
731.0	3.722
732.0	4.974
733.0	3.513
734.0	4.379
735.0	0.894
736.0	4.255
737.0	4.466
738.0	2.521
739.0	3.965
740.0	3.615
741.0	6.473
742.0	3.943
743.0	1.416
744.0	1.917
745.0	3.342
746.0	4.080
747.0	1.673
748.0	0.973
749.0	1.765
750.0	2.397
751.0	4.488
752.0	2.402
753.0	5.423
754.0	6.507
755.0	2.601
756.0	4.935
757.0	2.975
758.0	2.183
759.0	2.515
760.0	3.243
761.0	1.740
762.0	1.802
763.0	2.259
764.0	2.812
765.0	3.264
766.0	5.137
767.0	3.136
768.0	2.890
769.0	0.367
770.0	1.404
771.0	2.508
772.0	3.380
773.0	3.018
774.0	2.933
775.0	2.367
776.0	2.114
777.0	2.307
778.0	4.017
779.0	1.907
780.0	3.261

Sample:	'wa-11(EM)
File name:	50.FDS
Run Date:	'15:37:51, 07/11/2024
Operator:	WXH
Comment:	'

Instrument
Model:	F-4600 FL Spectrophotometer
Serial Number:	3080-002
ROM Version:	5J24000 02

Instrument Parameters
Measurement type:	Wavelength scan
Scan mode:	Emission
Data mode:	Fluorescence
EX WL:	460.0 nm
EM  Start WL:	480.0 nm
EM  End WL:	780.0 nm
Scan speed:	1200 nm/min
Delay:	0.0 s
EX Slit:	2.5 nm
EM Slit:	2.5 nm
PMT Voltage:	600 V
Response:	Auto 
Corrected spectra:	Off
Shutter control:	On

Peak integration
Integration method:	Rectangular
Sensitivity:	1
Threshold:	1.000

Peaks
No.	Valley(nm)	Valley(Data)
1	487.4	103.6
2	509.8	375.8
3	520.0	437.0
4	522.8	426.9
5	529.8	385.9
6	531.8	392.8
7	536.6	366.6
8	540.6	347.7
9	542.8	338.1
10	548.2	332.5
11	552.0	321.8
12	558.4	280.1
13	564.6	267.8
14	567.0	239.4
15	570.2	235.4
16	575.0	210.9
17	578.2	190.1
18	579.8	188.0
19	587.6	147.3
20	593.0	128.4
21	597.0	107.8
22	600.8	109.3
23	603.8	100.6
24	608.8	81.81
25	611.4	83.53
26	618.4	56.27
27	622.8	58.41
28	626.4	52.09
29	631.0	43.38
30	638.2	33.89
31	641.4	28.37
32	645.6	22.75
33	648.6	25.48
34	652.6	19.47
35	659.8	13.68
36	663.6	12.42
37	667.2	11.53
38	672.4	8.129
39	675.2	9.881
40	677.6	8.819
41	683.0	7.013
42	686.8	6.042
43	691.4	4.660
44	693.0	5.656
45	697.6	5.096
46	699.6	5.165
47	701.6	2.933
48	704.6	4.304
49	706.4	2.294
50	712.2	4.128
51	715.0	2.220
52	716.8	2.467
53	719.2	0.016
54	722.6	2.598
55	724.8	2.910
56	728.6	2.746
57	732.6	1.885
58	735.6	2.857
59	739.4	1.759
60	744.6	0.535
61	749.4	3.097
62	753.8	1.695
63	755.0	0.708
64	758.2	0.668
65	761.4	0.194
66	765.6	0.776
67	771.4	-0.201
68	774.2	2.310
69	777.4	2.896
70	780.0	3.270

Data Points
nm	Data
480.0	120.1
481.0	106.7
482.0	104.5
483.0	100.9
484.0	95.33
485.0	113.4
486.0	110.8
487.0	109.1
488.0	104.3
489.0	117.2
490.0	128.9
491.0	119.0
492.0	136.4
493.0	138.8
494.0	158.1
495.0	159.7
496.0	180.5
497.0	193.1
498.0	205.6
499.0	232.3
500.0	254.6
501.0	267.4
502.0	285.4
503.0	296.9
504.0	304.0
505.0	311.8
506.0	328.7
507.0	354.0
508.0	381.8
509.0	399.5
510.0	387.9
511.0	388.7
512.0	421.0
513.0	412.3
514.0	431.8
515.0	432.1
516.0	421.4
517.0	453.2
518.0	439.3
519.0	442.8
520.0	437.0
521.0	439.8
522.0	445.6
523.0	442.4
524.0	433.9
525.0	432.0
526.0	429.1
527.0	419.6
528.0	418.5
529.0	387.3
530.0	396.0
531.0	409.8
532.0	394.9
533.0	402.4
534.0	405.2
535.0	395.2
536.0	373.8
537.0	377.7
538.0	374.5
539.0	363.1
540.0	357.3
541.0	364.8
542.0	351.1
543.0	351.0
544.0	357.3
545.0	358.2
546.0	352.8
547.0	347.4
548.0	344.7
549.0	357.3
550.0	344.7
551.0	335.3
552.0	321.8
553.0	337.9
554.0	330.5
555.0	323.6
556.0	326.7
557.0	304.3
558.0	286.5
559.0	285.5
560.0	298.5
561.0	303.5
562.0	297.2
563.0	287.9
564.0	274.5
565.0	269.4
566.0	245.0
567.0	239.4
568.0	251.5
569.0	250.7
570.0	239.2
571.0	246.2
572.0	235.5
573.0	227.1
574.0	213.2
575.0	210.9
576.0	217.0
577.0	204.5
578.0	192.2
579.0	204.9
580.0	189.9
581.0	191.1
582.0	186.8
583.0	181.2
584.0	178.8
585.0	171.8
586.0	168.2
587.0	149.6
588.0	168.9
589.0	158.2
590.0	149.6
591.0	146.5
592.0	143.9
593.0	128.4
594.0	141.7
595.0	137.1
596.0	125.1
597.0	107.8
598.0	130.0
599.0	119.1
600.0	115.8
601.0	113.4
602.0	112.8
603.0	105.9
604.0	104.9
605.0	104.8
606.0	95.62
607.0	102.6
608.0	89.83
609.0	81.99
610.0	96.03
611.0	91.45
612.0	89.37
613.0	90.06
614.0	88.52
615.0	78.83
616.0	78.95
617.0	77.20
618.0	66.01
619.0	66.88
620.0	70.97
621.0	70.19
622.0	70.12
623.0	60.80
624.0	69.99
625.0	60.04
626.0	58.90
627.0	54.03
628.0	57.76
629.0	54.94
630.0	43.77
631.0	43.38
632.0	47.25
633.0	45.61
634.0	46.43
635.0	45.61
636.0	39.92
637.0	41.14
638.0	35.92
639.0	44.46
640.0	40.99
641.0	32.77
642.0	35.45
643.0	34.73
644.0	31.90
645.0	27.90
646.0	28.15
647.0	31.13
648.0	29.10
649.0	28.36
650.0	33.14
651.0	31.20
652.0	23.06
653.0	22.90
654.0	23.63
655.0	26.87
656.0	28.57
657.0	22.54
658.0	19.79
659.0	18.69
660.0	15.53
661.0	20.31
662.0	19.83
663.0	16.65
664.0	13.51
665.0	20.19
666.0	13.02
667.0	14.27
668.0	12.74
669.0	16.34
670.0	13.80
671.0	12.15
672.0	8.798
673.0	13.75
674.0	12.24
675.0	10.97
676.0	12.41
677.0	13.98
678.0	12.68
679.0	13.65
680.0	15.43
681.0	14.71
682.0	8.983
683.0	7.013
684.0	8.933
685.0	9.975
686.0	8.531
687.0	8.036
688.0	10.75
689.0	9.958
690.0	5.700
691.0	5.555
692.0	8.737
693.0	5.656
694.0	8.579
695.0	6.947
696.0	6.396
697.0	5.578
698.0	7.290
699.0	7.861
700.0	9.013
701.0	5.935
702.0	4.527
703.0	5.054
704.0	6.923
705.0	6.147
706.0	5.556
707.0	3.264
708.0	5.863
709.0	5.514
710.0	4.931
711.0	4.924
712.0	4.221
713.0	5.827
714.0	4.933
715.0	2.220
716.0	3.172
717.0	3.608
718.0	4.125
719.0	0.837
720.0	2.344
721.0	5.033
722.0	4.933
723.0	7.148
724.0	2.943
725.0	4.053
726.0	7.208
727.0	4.669
728.0	3.232
729.0	4.301
730.0	4.117
731.0	5.169
732.0	2.863
733.0	4.044
734.0	3.503
735.0	4.238
736.0	5.421
737.0	4.868
738.0	3.166
739.0	3.643
740.0	4.235
741.0	3.669
742.0	2.023
743.0	2.941
744.0	1.267
745.0	3.447
746.0	5.679
747.0	3.081
748.0	3.646
749.0	3.391
750.0	3.303
751.0	3.543
752.0	5.067
753.0	3.313
754.0	2.079
755.0	0.708
756.0	3.204
757.0	2.823
758.0	0.888
759.0	1.001
760.0	3.508
761.0	2.179
762.0	2.091
763.0	3.380
764.0	1.612
765.0	0.916
766.0	3.233
767.0	3.573
768.0	4.607
769.0	4.086
770.0	2.020
771.0	1.247
772.0	1.886
773.0	2.950
774.0	3.402
775.0	5.486
776.0	2.874
777.0	4.185
778.0	5.161
779.0	4.069
780.0	3.270

Sample:	'wa-12(EM)
File name:	50.FDS
Run Date:	'15:38:22, 07/11/2024
Operator:	WXH
Comment:	'

Instrument
Model:	F-4600 FL Spectrophotometer
Serial Number:	3080-002
ROM Version:	5J24000 02

Instrument Parameters
Measurement type:	Wavelength scan
Scan mode:	Emission
Data mode:	Fluorescence
EX WL:	460.0 nm
EM  Start WL:	480.0 nm
EM  End WL:	780.0 nm
Scan speed:	1200 nm/min
Delay:	0.0 s
EX Slit:	2.5 nm
EM Slit:	2.5 nm
PMT Voltage:	600 V
Response:	Auto 
Corrected spectra:	Off
Shutter control:	On

Peak integration
Integration method:	Rectangular
Sensitivity:	1
Threshold:	1.000

Peaks
No.	Valley(nm)	Valley(Data)
1	485.2	89.30
2	493.2	127.7
3	520.0	409.4
4	523.2	415.0
5	526.4	414.7
6	530.4	381.5
7	539.4	350.6
8	544.4	341.0
9	548.0	335.4
10	552.2	325.5
11	555.4	313.1
12	570.6	221.8
13	572.4	211.0
14	578.2	180.4
15	581.6	158.8
16	583.6	166.2
17	590.4	138.9
18	594.4	117.5
19	599.2	115.7
20	601.8	105.3
21	606.0	85.02
22	609.0	85.51
23	613.4	74.61
24	617.4	72.88
25	620.2	71.57
26	622.8	61.69
27	627.0	51.57
28	629.2	49.64
29	632.0	44.30
30	636.8	34.30
31	648.4	21.92
32	651.8	21.12
33	657.2	18.61
34	659.8	15.56
35	663.0	13.27
36	665.0	13.00
37	668.4	13.43
38	671.6	8.806
39	676.0	8.983
40	679.0	10.33
41	680.8	9.346
42	689.4	6.015
43	691.0	4.963
44	695.2	4.303
45	696.6	3.592
46	698.4	4.460
47	700.8	5.229
48	703.0	5.471
49	706.8	1.938
50	711.2	2.359
51	714.6	3.522
52	719.0	3.034
53	722.6	1.337
54	725.6	1.464
55	728.6	0.434
56	732.6	3.169
57	734.6	1.890
58	737.8	2.006
59	742.0	2.711
60	745.4	0.642
61	747.4	1.600
62	749.4	1.754
63	754.4	1.139
64	757.0	0.809
65	760.0	0.267
66	764.0	2.740
67	768.4	-0.024
68	771.4	0.909
69	775.4	1.632
70	780.0	2.896

Data Points
nm	Data
480.0	94.40
481.0	96.80
482.0	92.39
483.0	90.23
484.0	92.36
485.0	95.25
486.0	93.87
487.0	102.6
488.0	106.0
489.0	108.6
490.0	112.9
491.0	131.7
492.0	134.2
493.0	135.3
494.0	135.2
495.0	163.7
496.0	182.1
497.0	193.4
498.0	229.2
499.0	218.0
500.0	248.4
501.0	259.7
502.0	274.2
503.0	274.8
504.0	307.1
505.0	319.5
506.0	333.6
507.0	344.4
508.0	366.8
509.0	364.5
510.0	387.5
511.0	400.4
512.0	413.6
513.0	417.0
514.0	423.0
515.0	434.8
516.0	435.4
517.0	430.6
518.0	429.2
519.0	412.2
520.0	409.4
521.0	450.6
522.0	450.7
523.0	430.9
524.0	434.4
525.0	428.0
526.0	424.0
527.0	431.6
528.0	405.7
529.0	409.6
530.0	383.7
531.0	406.9
532.0	398.6
533.0	404.6
534.0	394.0
535.0	396.2
536.0	379.9
537.0	386.3
538.0	389.8
539.0	360.3
540.0	356.3
541.0	370.0
542.0	361.7
543.0	358.3
544.0	350.2
545.0	363.3
546.0	352.7
547.0	363.7
548.0	335.4
549.0	347.1
550.0	353.4
551.0	353.9
552.0	342.5
553.0	355.1
554.0	344.1
555.0	324.8
556.0	328.0
557.0	334.6
558.0	314.2
559.0	313.5
560.0	316.4
561.0	296.5
562.0	296.7
563.0	292.1
564.0	274.1
565.0	275.6
566.0	274.8
567.0	268.0
568.0	273.8
569.0	249.4
570.0	230.7
571.0	230.9
572.0	212.4
573.0	222.8
574.0	226.2
575.0	215.6
576.0	204.2
577.0	209.2
578.0	188.2
579.0	197.8
580.0	191.7
581.0	174.8
582.0	170.1
583.0	170.6
584.0	172.1
585.0	173.1
586.0	160.3
587.0	153.7
588.0	143.9
589.0	142.0
590.0	144.2
591.0	144.6
592.0	140.8
593.0	132.2
594.0	134.6
595.0	125.9
596.0	130.6
597.0	121.2
598.0	126.2
599.0	118.1
600.0	121.4
601.0	107.4
602.0	107.4
603.0	113.0
604.0	108.9
605.0	96.46
606.0	85.02
607.0	96.48
608.0	97.86
609.0	85.51
610.0	88.47
611.0	81.28
612.0	74.66
613.0	76.55
614.0	82.60
615.0	88.02
616.0	83.32
617.0	75.76
618.0	78.79
619.0	82.09
620.0	73.36
621.0	76.21
622.0	72.31
623.0	66.56
624.0	68.10
625.0	65.83
626.0	57.34
627.0	51.57
628.0	53.65
629.0	50.24
630.0	55.18
631.0	49.13
632.0	44.30
633.0	50.76
634.0	40.82
635.0	44.78
636.0	36.23
637.0	34.59
638.0	41.98
639.0	39.45
640.0	36.60
641.0	38.54
642.0	32.51
643.0	28.47
644.0	33.63
645.0	32.58
646.0	32.33
647.0	30.22
648.0	24.53
649.0	30.56
650.0	24.39
651.0	25.12
652.0	25.78
653.0	30.65
654.0	34.05
655.0	23.92
656.0	22.89
657.0	20.26
658.0	23.79
659.0	19.28
660.0	17.98
661.0	17.69
662.0	16.34
663.0	13.27
664.0	16.98
665.0	13.00
666.0	16.48
667.0	18.25
668.0	18.63
669.0	14.94
670.0	16.45
671.0	14.50
672.0	9.121
673.0	15.24
674.0	12.87
675.0	11.74
676.0	8.983
677.0	10.76
678.0	12.76
679.0	10.33
680.0	12.77
681.0	10.24
682.0	12.83
683.0	13.44
684.0	12.42
685.0	10.10
686.0	8.466
687.0	9.152
688.0	8.063
689.0	8.253
690.0	7.599
691.0	4.963
692.0	6.427
693.0	7.101
694.0	6.163
695.0	5.233
696.0	4.674
697.0	5.276
698.0	5.332
699.0	5.802
700.0	7.753
701.0	5.380
702.0	8.315
703.0	5.471
704.0	9.883
705.0	6.701
706.0	6.226
707.0	1.952
708.0	7.586
709.0	5.485
710.0	3.941
711.0	4.446
712.0	5.270
713.0	4.510
714.0	4.368
715.0	5.617
716.0	6.669
717.0	5.416
718.0	5.269
719.0	3.034
720.0	4.119
721.0	6.790
722.0	4.566
723.0	3.092
724.0	5.310
725.0	2.300
726.0	3.668
727.0	3.377
728.0	2.729
729.0	2.189
730.0	4.912
731.0	4.875
732.0	5.296
733.0	4.793
734.0	5.269
735.0	2.764
736.0	7.094
737.0	2.607
738.0	4.964
739.0	5.052
740.0	2.999
741.0	7.093
742.0	2.711
743.0	4.243
744.0	3.879
745.0	2.146
746.0	3.026
747.0	2.320
748.0	3.545
749.0	2.880
750.0	2.440
751.0	4.952
752.0	3.969
753.0	3.035
754.0	1.961
755.0	2.583
756.0	2.387
757.0	0.809
758.0	3.108
759.0	2.072
760.0	0.267
761.0	3.435
762.0	4.097
763.0	2.955
764.0	2.740
765.0	4.047
766.0	4.484
767.0	1.876
768.0	0.460
769.0	1.053
770.0	1.840
771.0	2.031
772.0	2.464
773.0	4.277
774.0	6.492
775.0	2.642
776.0	3.948
777.0	5.192
778.0	2.540
779.0	4.434
780.0	2.896

Sample:	'wa-13(EM)
File name:	50.FDS
Run Date:	'15:38:52, 07/11/2024
Operator:	WXH
Comment:	'

Instrument
Model:	F-4600 FL Spectrophotometer
Serial Number:	3080-002
ROM Version:	5J24000 02

Instrument Parameters
Measurement type:	Wavelength scan
Scan mode:	Emission
Data mode:	Fluorescence
EX WL:	460.0 nm
EM  Start WL:	480.0 nm
EM  End WL:	780.0 nm
Scan speed:	1200 nm/min
Delay:	0.0 s
EX Slit:	2.5 nm
EM Slit:	2.5 nm
PMT Voltage:	600 V
Response:	Auto 
Corrected spectra:	Off
Shutter control:	On

Peak integration
Integration method:	Rectangular
Sensitivity:	1
Threshold:	1.000

Peaks
No.	Valley(nm)	Valley(Data)
1	483.6	93.45
2	488.6	103.6
3	503.6	283.0
4	508.4	355.3
5	515.2	412.2
6	519.2	428.6
7	521.0	412.9
8	525.4	400.6
9	529.6	378.0
10	535.6	351.8
11	539.6	354.9
12	542.8	341.6
13	546.2	334.3
14	550.0	331.2
15	552.2	307.4
16	557.6	302.3
17	560.0	295.6
18	564.2	267.2
19	570.0	235.4
20	578.8	185.9
21	585.6	145.5
22	587.6	140.9
23	592.4	114.8
24	594.8	129.3
25	601.0	98.08
26	606.6	99.78
27	611.8	81.69
28	614.4	67.93
29	617.0	71.40
30	625.4	55.63
31	630.2	45.10
32	634.4	37.33
33	637.2	42.19
34	640.2	31.79
35	642.4	29.84
36	644.0	31.71
37	646.0	22.95
38	649.2	25.24
39	652.4	20.24
40	656.6	16.79
41	661.0	17.44
42	664.0	13.15
43	668.6	16.09
44	671.4	11.81
45	674.8	8.479
46	678.0	7.159
47	684.0	4.953
48	689.0	5.113
49	692.2	8.815
50	696.6	2.905
51	701.2	6.030
52	707.6	2.780
53	709.4	3.971
54	712.6	0.824
55	714.6	3.145
56	716.6	1.743
57	720.0	1.308
58	724.0	3.195
59	727.8	2.972
60	731.6	1.436
61	738.2	0.378
62	741.4	0.772
63	743.2	-0.093
64	748.0	1.075
65	753.4	-0.036
66	757.2	0.749
67	763.8	1.835
68	765.6	1.664
69	767.2	1.507
70	772.8	-0.068
71	775.4	0.268
72	780.0	3.475

Data Points
nm	Data
480.0	75.69
481.0	89.75
482.0	88.01
483.0	103.0
484.0	96.10
485.0	100.4
486.0	107.0
487.0	110.4
488.0	107.0
489.0	116.8
490.0	122.3
491.0	135.9
492.0	141.1
493.0	142.6
494.0	138.3
495.0	179.0
496.0	186.5
497.0	197.2
498.0	210.4
499.0	221.6
500.0	235.8
501.0	244.6
502.0	278.7
503.0	300.5
504.0	297.9
505.0	317.0
506.0	348.8
507.0	367.1
508.0	361.1
509.0	356.5
510.0	377.3
511.0	402.0
512.0	393.5
513.0	418.6
514.0	437.2
515.0	421.4
516.0	448.0
517.0	445.9
518.0	447.4
519.0	432.7
520.0	439.5
521.0	412.9
522.0	427.9
523.0	456.0
524.0	419.5
525.0	406.0
526.0	412.7
527.0	422.5
528.0	425.8
529.0	394.5
530.0	385.2
531.0	407.3
532.0	405.3
533.0	397.4
534.0	392.6
535.0	377.5
536.0	359.8
537.0	362.8
538.0	378.9
539.0	377.3
540.0	364.1
541.0	372.8
542.0	363.0
543.0	354.4
544.0	368.3
545.0	338.5
546.0	342.7
547.0	346.2
548.0	349.9
549.0	356.7
550.0	331.2
551.0	342.7
552.0	314.0
553.0	323.5
554.0	335.3
555.0	326.6
556.0	325.3
557.0	311.3
558.0	316.0
559.0	313.7
560.0	295.6
561.0	313.7
562.0	293.4
563.0	286.2
564.0	269.0
565.0	271.5
566.0	270.7
567.0	276.9
568.0	258.6
569.0	246.8
570.0	235.4
571.0	253.4
572.0	228.3
573.0	233.4
574.0	227.7
575.0	217.1
576.0	208.0
577.0	205.7
578.0	189.2
579.0	187.4
580.0	205.7
581.0	189.8
582.0	180.5
583.0	167.3
584.0	165.1
585.0	168.5
586.0	153.5
587.0	160.2
588.0	143.7
589.0	150.9
590.0	145.2
591.0	141.0
592.0	126.4
593.0	134.9
594.0	136.8
595.0	137.1
596.0	131.1
597.0	131.2
598.0	127.7
599.0	125.2
600.0	119.7
601.0	98.08
602.0	116.8
603.0	105.2
604.0	108.1
605.0	113.1
606.0	101.8
607.0	101.1
608.0	103.6
609.0	95.35
610.0	89.28
611.0	85.81
612.0	84.09
613.0	93.73
614.0	81.17
615.0	79.92
616.0	75.81
617.0	71.40
618.0	81.54
619.0	79.23
620.0	80.02
621.0	73.34
622.0	68.25
623.0	63.94
624.0	60.17
625.0	57.70
626.0	56.93
627.0	56.26
628.0	53.79
629.0	46.00
630.0	46.77
631.0	50.61
632.0	48.63
633.0	46.36
634.0	38.20
635.0	40.10
636.0	46.03
637.0	42.62
638.0	45.62
639.0	43.04
640.0	32.18
641.0	34.38
642.0	33.93
643.0	39.35
644.0	31.71
645.0	29.25
646.0	22.95
647.0	30.95
648.0	29.55
649.0	26.83
650.0	26.46
651.0	29.73
652.0	22.99
653.0	24.65
654.0	29.54
655.0	27.29
656.0	24.14
657.0	25.55
658.0	22.16
659.0	17.19
660.0	22.12
661.0	17.44
662.0	25.82
663.0	22.50
664.0	13.15
665.0	18.21
666.0	14.30
667.0	16.41
668.0	18.23
669.0	18.73
670.0	16.63
671.0	11.98
672.0	13.90
673.0	17.23
674.0	12.27
675.0	12.62
676.0	14.73
677.0	10.04
678.0	7.159
679.0	11.22
680.0	14.17
681.0	9.779
682.0	12.44
683.0	9.146
684.0	4.953
685.0	6.945
686.0	10.33
687.0	8.407
688.0	6.331
689.0	5.113
690.0	8.101
691.0	9.165
692.0	10.66
693.0	10.31
694.0	8.022
695.0	6.144
696.0	7.882
697.0	5.167
698.0	6.323
699.0	9.423
700.0	8.237
701.0	8.069
702.0	7.716
703.0	8.415
704.0	7.436
705.0	8.612
706.0	4.407
707.0	3.576
708.0	8.103
709.0	7.812
710.0	7.090
711.0	6.273
712.0	5.951
713.0	5.787
714.0	5.502
715.0	4.224
716.0	3.794
717.0	4.013
718.0	3.549
719.0	2.976
720.0	1.308
721.0	2.074
722.0	2.266
723.0	4.425
724.0	3.195
725.0	6.820
726.0	5.513
727.0	4.669
728.0	3.306
729.0	5.058
730.0	5.810
731.0	3.106
732.0	5.654
733.0	5.457
734.0	3.278
735.0	2.443
736.0	3.223
737.0	1.901
738.0	0.993
739.0	1.980
740.0	4.177
741.0	1.221
742.0	2.101
743.0	1.101
744.0	2.471
745.0	4.930
746.0	3.167
747.0	2.376
748.0	1.075
749.0	3.668
750.0	2.704
751.0	3.151
752.0	1.899
753.0	2.032
754.0	3.000
755.0	3.451
756.0	3.336
757.0	1.935
758.0	2.491
759.0	1.411
760.0	3.578
761.0	3.688
762.0	3.520
763.0	2.417
764.0	2.879
765.0	4.925
766.0	3.151
767.0	2.785
768.0	1.533
769.0	4.651
770.0	3.449
771.0	1.785
772.0	1.752
773.0	1.117
774.0	1.389
775.0	2.136
776.0	1.058
777.0	3.947
778.0	5.249
779.0	4.734
780.0	3.475

Sample:	'wa-14(EM)
File name:	50.FDS
Run Date:	'15:39:22, 07/11/2024
Operator:	WXH
Comment:	'

Instrument
Model:	F-4600 FL Spectrophotometer
Serial Number:	3080-002
ROM Version:	5J24000 02

Instrument Parameters
Measurement type:	Wavelength scan
Scan mode:	Emission
Data mode:	Fluorescence
EX WL:	460.0 nm
EM  Start WL:	480.0 nm
EM  End WL:	780.0 nm
Scan speed:	1200 nm/min
Delay:	0.0 s
EX Slit:	2.5 nm
EM Slit:	2.5 nm
PMT Voltage:	600 V
Response:	Auto 
Corrected spectra:	Off
Shutter control:	On

Peak integration
Integration method:	Rectangular
Sensitivity:	1
Threshold:	1.000

Peaks
No.	Valley(nm)	Valley(Data)
1	484.2	89.27
2	486.6	94.47
3	489.8	109.2
4	506.0	318.0
5	513.0	402.5
6	514.8	402.1
7	517.4	418.1
8	520.6	414.4
9	525.8	414.8
10	532.2	378.6
11	534.8	372.4
12	537.4	366.5
13	541.6	360.3
14	544.6	336.3
15	549.0	323.8
16	557.8	279.4
17	564.6	258.4
18	575.8	202.1
19	586.4	147.7
20	589.0	145.0
21	591.4	136.4
22	597.2	104.8
23	599.8	108.8
24	603.4	103.6
25	607.6	98.41
26	609.2	87.85
27	615.6	73.86
28	620.4	60.87
29	624.8	59.99
30	629.0	47.38
31	637.8	32.17
32	640.8	27.89
33	642.4	31.50
34	649.2	25.70
35	652.0	19.20
36	657.0	18.17
37	659.4	16.83
38	665.4	10.88
39	667.6	13.55
40	672.0	12.00
41	676.2	8.023
42	679.0	9.183
43	681.8	7.260
44	686.4	6.771
45	688.4	5.143
46	691.0	2.673
47	695.2	5.635
48	698.8	4.417
49	701.4	4.363
50	704.6	4.802
51	706.4	3.870
52	709.4	3.989
53	713.8	4.212
54	719.4	3.768
55	722.2	2.208
56	726.6	2.539
57	729.6	1.966
58	737.2	2.394
59	740.2	1.338
60	742.4	0.412
61	746.2	2.357
62	748.6	-0.073
63	751.6	1.593
64	753.6	1.192
65	762.4	-0.098
66	766.0	0.734
67	774.2	1.070
68	776.0	1.497
69	777.6	0.562

Data Points
nm	Data
480.0	103.5
481.0	92.49
482.0	101.6
483.0	99.92
484.0	91.75
485.0	107.6
486.0	105.2
487.0	99.17
488.0	109.7
489.0	120.6
490.0	115.9
491.0	123.6
492.0	123.8
493.0	126.4
494.0	150.4
495.0	156.8
496.0	168.2
497.0	192.5
498.0	198.2
499.0	227.1
500.0	255.6
501.0	260.8
502.0	274.1
503.0	288.6
504.0	309.9
505.0	327.8
506.0	318.0
507.0	332.4
508.0	371.5
509.0	378.0
510.0	400.1
511.0	400.8
512.0	416.1
513.0	402.5
514.0	422.0
515.0	411.6
516.0	437.6
517.0	432.0
518.0	444.6
519.0	450.4
520.0	438.5
521.0	433.3
522.0	434.1
523.0	442.4
524.0	457.1
525.0	449.7
526.0	424.4
527.0	422.4
528.0	407.0
529.0	405.5
530.0	405.1
531.0	405.1
532.0	387.8
533.0	392.4
534.0	392.2
535.0	378.5
536.0	378.2
537.0	377.4
538.0	376.9
539.0	388.6
540.0	385.2
541.0	366.6
542.0	369.7
543.0	368.9
544.0	352.3
545.0	347.1
546.0	348.5
547.0	367.1
548.0	346.6
549.0	323.8
550.0	338.1
551.0	326.9
552.0	325.3
553.0	317.9
554.0	307.4
555.0	305.2
556.0	300.7
557.0	293.3
558.0	294.5
559.0	304.1
560.0	322.9
561.0	303.5
562.0	281.1
563.0	267.9
564.0	275.2
565.0	267.3
566.0	295.7
567.0	266.9
568.0	256.7
569.0	247.8
570.0	250.3
571.0	240.0
572.0	244.0
573.0	238.9
574.0	230.8
575.0	216.6
576.0	203.1
577.0	215.3
578.0	206.6
579.0	204.3
580.0	189.1
581.0	187.7
582.0	184.3
583.0	184.3
584.0	184.2
585.0	174.6
586.0	160.8
587.0	163.3
588.0	159.1
589.0	145.0
590.0	147.6
591.0	151.0
592.0	150.6
593.0	144.5
594.0	136.0
595.0	129.6
596.0	119.3
597.0	114.5
598.0	116.6
599.0	115.6
600.0	109.4
601.0	112.9
602.0	112.4
603.0	105.7
604.0	114.3
605.0	102.7
606.0	100.6
607.0	100.5
608.0	102.1
609.0	95.57
610.0	95.76
611.0	100.0
612.0	92.62
613.0	90.43
614.0	85.81
615.0	81.53
616.0	80.42
617.0	76.84
618.0	76.85
619.0	67.90
620.0	62.42
621.0	63.60
622.0	70.19
623.0	64.98
624.0	60.43
625.0	61.12
626.0	69.90
627.0	60.30
628.0	60.33
629.0	47.38
630.0	55.06
631.0	52.34
632.0	52.30
633.0	46.87
634.0	47.17
635.0	49.20
636.0	43.06
637.0	45.14
638.0	40.56
639.0	41.81
640.0	36.79
641.0	31.00
642.0	32.27
643.0	36.16
644.0	35.81
645.0	33.18
646.0	34.07
647.0	31.05
648.0	27.85
649.0	26.38
650.0	28.41
651.0	29.63
652.0	19.20
653.0	23.64
654.0	28.75
655.0	26.88
656.0	25.01
657.0	18.17
658.0	22.87
659.0	20.54
660.0	23.37
661.0	22.82
662.0	21.57
663.0	18.01
664.0	15.69
665.0	14.86
666.0	17.77
667.0	19.81
668.0	16.21
669.0	15.93
670.0	17.15
671.0	14.02
672.0	12.00
673.0	19.45
674.0	15.20
675.0	10.35
676.0	9.931
677.0	10.71
678.0	9.447
679.0	9.183
680.0	11.89
681.0	10.58
682.0	11.41
683.0	13.68
684.0	10.08
685.0	9.715
686.0	6.949
687.0	12.08
688.0	5.856
689.0	8.543
690.0	7.138
691.0	2.673
692.0	7.903
693.0	9.506
694.0	9.655
695.0	7.095
696.0	7.010
697.0	6.955
698.0	8.000
699.0	5.789
700.0	5.578
701.0	5.548
702.0	6.253
703.0	9.505
704.0	5.259
705.0	5.971
706.0	6.673
707.0	5.780
708.0	5.053
709.0	5.117
710.0	6.394
711.0	7.686
712.0	5.592
713.0	5.683
714.0	5.005
715.0	5.909
716.0	3.788
717.0	4.544
718.0	2.658
719.0	4.029
720.0	5.750
721.0	6.347
722.0	2.586
723.0	3.957
724.0	3.404
725.0	5.646
726.0	5.165
727.0	5.486
728.0	6.909
729.0	3.982
730.0	3.378
731.0	3.659
732.0	3.856
733.0	3.623
734.0	3.795
735.0	6.116
736.0	3.551
737.0	2.512
738.0	3.098
739.0	3.374
740.0	2.755
741.0	5.551
742.0	1.810
743.0	2.053
744.0	1.690
745.0	3.580
746.0	3.389
747.0	3.325
748.0	2.748
749.0	0.765
750.0	7.390
751.0	2.175
752.0	2.360
753.0	2.251
754.0	2.184
755.0	1.391
756.0	4.893
757.0	4.631
758.0	3.973
759.0	4.344
760.0	3.721
761.0	0.891
762.0	1.197
763.0	1.587
764.0	3.452
765.0	0.916
766.0	0.734
767.0	1.864
768.0	1.007
769.0	2.903
770.0	2.287
771.0	3.656
772.0	4.250
773.0	2.623
774.0	2.040
775.0	2.116
776.0	1.497
777.0	3.497
778.0	1.014
779.0	2.355
780.0	2.893

Sample:	'wa-15(EM)
File name:	50.FDS
Run Date:	'15:39:52, 07/11/2024
Operator:	WXH
Comment:	'

Instrument
Model:	F-4600 FL Spectrophotometer
Serial Number:	3080-002
ROM Version:	5J24000 02

Instrument Parameters
Measurement type:	Wavelength scan
Scan mode:	Emission
Data mode:	Fluorescence
EX WL:	460.0 nm
EM  Start WL:	480.0 nm
EM  End WL:	780.0 nm
Scan speed:	1200 nm/min
Delay:	0.0 s
EX Slit:	2.5 nm
EM Slit:	2.5 nm
PMT Voltage:	600 V
Response:	Auto 
Corrected spectra:	Off
Shutter control:	On

Peak integration
Integration method:	Rectangular
Sensitivity:	1
Threshold:	1.000

Peaks
No.	Valley(nm)	Valley(Data)
1	488.8	99.44
2	491.8	108.3
3	506.4	314.4
4	517.8	424.5
5	521.6	427.9
6	527.8	414.2
7	531.4	371.9
8	533.6	371.2
9	538.4	367.9
10	541.4	355.7
11	543.4	352.3
12	547.0	330.5
13	550.0	324.8
14	553.2	299.7
15	560.2	283.5
16	562.6	273.2
17	569.0	241.0
18	577.6	194.6
19	582.4	167.5
20	584.0	171.6
21	587.4	153.1
22	590.0	142.2
23	592.8	123.5
24	599.4	111.7
25	600.8	105.5
26	604.0	96.31
27	607.6	93.72
28	610.6	83.93
29	617.0	65.44
30	619.6	60.00
31	622.8	52.03
32	627.8	52.92
33	631.8	42.02
34	633.6	41.45
35	635.8	41.41
36	641.6	30.52
37	643.4	28.39
38	649.2	22.16
39	651.2	20.74
40	652.8	22.11
41	655.2	19.36
42	661.2	15.53
43	664.0	15.71
44	668.2	12.73
45	671.8	10.55
46	675.2	9.348
47	682.0	6.829
48	683.4	9.561
49	685.4	7.531
50	691.4	5.953
51	697.0	4.231
52	702.8	4.826
53	708.0	3.669
54	713.0	2.899
55	718.4	3.431
56	720.6	3.353
57	724.4	1.267
58	730.8	3.047
59	732.2	1.835
60	734.8	2.684
61	736.4	3.250
62	739.4	1.719
63	741.6	1.408
64	744.4	1.688
65	747.2	0.371
66	750.0	1.826
67	753.8	2.057
68	756.2	2.992
69	758.6	1.922
70	760.4	0.820
71	763.8	1.058
72	767.6	0.190
73	769.0	1.907
74	773.8	1.690
75	775.6	0.190
76	780.0	3.339

Data Points
nm	Data
480.0	116.2
481.0	99.18
482.0	102.5
483.0	97.04
484.0	89.72
485.0	90.70
486.0	95.08
487.0	100.0
488.0	106.9
489.0	99.65
490.0	116.1
491.0	130.2
492.0	121.6
493.0	140.7
494.0	155.0
495.0	167.5
496.0	182.1
497.0	171.5
498.0	202.3
499.0	209.0
500.0	239.4
501.0	253.3
502.0	279.3
503.0	288.5
504.0	314.1
505.0	320.9
506.0	316.6
507.0	330.3
508.0	366.8
509.0	366.2
510.0	376.2
511.0	409.6
512.0	407.8
513.0	407.5
514.0	409.5
515.0	445.8
516.0	436.7
517.0	438.9
518.0	432.2
519.0	445.5
520.0	450.1
521.0	443.6
522.0	430.6
523.0	428.7
524.0	427.9
525.0	446.2
526.0	436.6
527.0	421.5
528.0	426.3
529.0	435.0
530.0	410.5
531.0	386.5
532.0	394.2
533.0	383.0
534.0	399.6
535.0	398.5
536.0	384.5
537.0	386.5
538.0	378.0
539.0	385.8
540.0	381.5
541.0	379.8
542.0	371.1
543.0	356.7
544.0	375.5
545.0	354.7
546.0	359.3
547.0	330.5
548.0	362.6
549.0	358.2
550.0	324.8
551.0	342.8
552.0	315.9
553.0	313.4
554.0	329.9
555.0	328.4
556.0	325.3
557.0	326.3
558.0	310.1
559.0	305.5
560.0	289.9
561.0	289.6
562.0	289.6
563.0	283.4
564.0	305.5
565.0	290.4
566.0	267.0
567.0	257.2
568.0	261.9
569.0	241.0
570.0	243.8
571.0	252.6
572.0	254.9
573.0	239.8
574.0	222.1
575.0	218.8
576.0	203.0
577.0	197.5
578.0	204.0
579.0	198.1
580.0	208.8
581.0	183.2
582.0	168.9
583.0	179.1
584.0	171.6
585.0	175.0
586.0	175.3
587.0	155.8
588.0	167.7
589.0	166.9
590.0	142.2
591.0	147.8
592.0	140.6
593.0	127.7
594.0	136.2
595.0	136.3
596.0	131.9
597.0	128.1
598.0	128.1
599.0	112.0
600.0	119.6
601.0	117.3
602.0	117.2
603.0	118.1
604.0	96.31
605.0	110.6
606.0	110.2
607.0	104.9
608.0	99.67
609.0	106.6
610.0	95.93
611.0	89.13
612.0	94.48
613.0	84.92
614.0	78.91
615.0	76.53
616.0	77.86
617.0	65.44
618.0	81.43
619.0	75.04
620.0	69.44
621.0	68.01
622.0	72.54
623.0	52.94
624.0	61.67
625.0	58.77
626.0	56.60
627.0	54.48
628.0	53.23
629.0	55.72
630.0	50.14
631.0	42.13
632.0	46.85
633.0	52.81
634.0	45.07
635.0	46.65
636.0	42.03
637.0	46.29
638.0	49.04
639.0	42.55
640.0	40.12
641.0	36.13
642.0	37.45
643.0	33.39
644.0	40.65
645.0	34.24
646.0	33.56
647.0	25.90
648.0	24.60
649.0	24.24
650.0	26.69
651.0	20.82
652.0	26.95
653.0	22.81
654.0	29.05
655.0	21.46
656.0	21.75
657.0	22.13
658.0	18.73
659.0	17.39
660.0	17.33
661.0	16.66
662.0	22.25
663.0	19.87
664.0	15.71
665.0	15.92
666.0	22.55
667.0	18.47
668.0	12.92
669.0	20.63
670.0	16.97
671.0	12.08
672.0	11.91
673.0	11.60
674.0	12.97
675.0	11.01
676.0	12.09
677.0	15.36
678.0	13.45
679.0	11.94
680.0	11.62
681.0	10.95
682.0	6.829
683.0	10.93
684.0	11.21
685.0	12.10
686.0	11.03
687.0	9.797
688.0	12.47
689.0	8.592
690.0	7.093
691.0	8.376
692.0	6.058
693.0	8.936
694.0	10.07
695.0	8.545
696.0	7.226
697.0	4.231
698.0	6.817
699.0	9.002
700.0	9.725
701.0	10.31
702.0	7.740
703.0	5.408
704.0	7.194
705.0	5.113
706.0	7.785
707.0	8.158
708.0	3.669
709.0	5.936
710.0	7.853
711.0	4.738
712.0	5.022
713.0	2.899
714.0	4.821
715.0	5.891
716.0	7.130
717.0	5.408
718.0	4.918
719.0	4.538
720.0	4.701
721.0	3.622
722.0	7.190
723.0	7.222
724.0	4.465
725.0	2.323
726.0	2.588
727.0	6.044
728.0	5.109
729.0	4.253
730.0	3.969
731.0	3.104
732.0	2.119
733.0	4.110
734.0	5.318
735.0	2.971
736.0	3.346
737.0	5.222
738.0	4.985
739.0	4.017
740.0	2.107
741.0	3.743
742.0	1.870
743.0	3.712
744.0	3.492
745.0	5.478
746.0	5.998
747.0	1.440
748.0	1.320
749.0	3.811
750.0	1.826
751.0	5.124
752.0	3.295
753.0	4.064
754.0	4.007
755.0	6.475
756.0	3.120
757.0	3.217
758.0	4.003
759.0	3.231
760.0	2.326
761.0	1.443
762.0	2.453
763.0	2.261
764.0	3.408
765.0	3.338
766.0	3.757
767.0	1.580
768.0	1.832
769.0	1.907
770.0	3.678
771.0	3.180
772.0	3.968
773.0	2.529
774.0	2.491
775.0	1.542
776.0	0.804
777.0	4.331
778.0	3.014
779.0	2.352
780.0	3.339

Sample:	'wa-16(EM)
File name:	50.FDS
Run Date:	'15:40:23, 07/11/2024
Operator:	WXH
Comment:	'

Instrument
Model:	F-4600 FL Spectrophotometer
Serial Number:	3080-002
ROM Version:	5J24000 02

Instrument Parameters
Measurement type:	Wavelength scan
Scan mode:	Emission
Data mode:	Fluorescence
EX WL:	460.0 nm
EM  Start WL:	480.0 nm
EM  End WL:	780.0 nm
Scan speed:	1200 nm/min
Delay:	0.0 s
EX Slit:	2.5 nm
EM Slit:	2.5 nm
PMT Voltage:	600 V
Response:	Auto 
Corrected spectra:	Off
Shutter control:	On

Peak integration
Integration method:	Rectangular
Sensitivity:	1
Threshold:	1.000

Peaks
No.	Valley(nm)	Valley(Data)
1	482.4	82.36
2	484.2	88.92
3	488.6	99.30
4	490.6	108.0
5	509.2	370.2
6	515.0	422.0
7	519.8	435.7
8	521.6	431.8
9	527.4	407.6
10	529.2	404.8
11	533.0	393.1
12	537.0	362.2
13	538.8	356.7
14	542.6	344.1
15	550.0	318.7
16	554.4	312.3
17	561.2	270.9
18	562.8	269.0
19	565.4	255.5
20	571.2	230.2
21	576.8	198.5
22	579.8	184.4
23	582.4	166.8
24	591.8	146.8
25	594.6	122.3
26	596.0	110.5
27	600.4	106.9
28	604.4	98.46
29	607.6	88.82
30	610.2	87.63
31	612.4	86.16
32	616.4	72.04
33	619.6	62.67
34	622.8	55.06
35	625.4	57.11
36	627.6	51.81
37	628.8	47.56
38	632.0	43.48
39	637.4	33.84
40	642.2	28.69
41	650.0	19.26
42	655.4	19.09
43	662.4	13.77
44	663.8	11.61
45	667.4	15.01
46	671.4	10.10
47	672.8	10.74
48	676.4	9.694
49	677.4	10.92
50	684.6	6.108
51	686.0	9.968
52	688.4	6.379
53	692.2	5.506
54	694.8	5.692
55	697.0	6.647
56	700.4	3.060
57	703.8	3.368
58	705.6	3.586
59	708.6	2.774
60	711.0	4.017
61	713.6	2.185
62	718.2	2.404
63	721.8	2.335
64	727.2	2.907
65	731.6	2.480
66	733.6	2.099
67	735.2	1.546
68	737.0	2.236
69	742.2	2.100
70	744.2	1.093
71	747.4	0.540
72	750.4	1.172
73	752.0	1.575
74	755.6	2.408
75	757.4	1.426
76	760.0	3.503
77	762.6	0.142
78	769.0	1.194
79	774.6	2.047
80	780.0	2.536

Data Points
nm	Data
480.0	91.28
481.0	99.76
482.0	93.88
483.0	92.53
484.0	92.81
485.0	96.43
486.0	91.10
487.0	101.1
488.0	102.0
489.0	113.2
490.0	108.6
491.0	114.9
492.0	131.5
493.0	135.9
494.0	160.5
495.0	163.0
496.0	176.5
497.0	188.9
498.0	216.9
499.0	229.3
500.0	250.3
501.0	276.6
502.0	283.4
503.0	310.0
504.0	312.9
505.0	330.0
506.0	361.8
507.0	370.6
508.0	382.6
509.0	384.7
510.0	397.8
511.0	415.8
512.0	406.5
513.0	417.8
514.0	439.9
515.0	422.0
516.0	428.3
517.0	433.1
518.0	460.8
519.0	465.7
520.0	442.0
521.0	449.9
522.0	441.5
523.0	450.0
524.0	428.6
525.0	415.7
526.0	412.5
527.0	413.8
528.0	427.2
529.0	423.5
530.0	412.7
531.0	410.1
532.0	403.8
533.0	393.1
534.0	411.6
535.0	418.9
536.0	376.6
537.0	362.2
538.0	382.2
539.0	376.2
540.0	368.3
541.0	359.2
542.0	358.3
543.0	355.1
544.0	347.2
545.0	354.8
546.0	353.2
547.0	351.4
548.0	357.7
549.0	345.1
550.0	318.7
551.0	334.7
552.0	359.9
553.0	349.7
554.0	328.5
555.0	328.5
556.0	328.5
557.0	327.2
558.0	296.2
559.0	302.7
560.0	285.5
561.0	272.9
562.0	298.7
563.0	285.0
564.0	272.4
565.0	258.9
566.0	277.6
567.0	261.8
568.0	253.3
569.0	248.8
570.0	235.2
571.0	244.3
572.0	233.0
573.0	237.4
574.0	223.4
575.0	215.4
576.0	219.3
577.0	206.6
578.0	212.5
579.0	205.7
580.0	192.7
581.0	190.2
582.0	188.5
583.0	178.9
584.0	179.3
585.0	178.8
586.0	170.4
587.0	164.8
588.0	157.5
589.0	160.8
590.0	150.0
591.0	154.3
592.0	153.5
593.0	143.0
594.0	122.7
595.0	126.8
596.0	110.5
597.0	133.7
598.0	122.4
599.0	117.1
600.0	116.2
601.0	117.4
602.0	117.1
603.0	104.1
604.0	104.8
605.0	108.2
606.0	104.2
607.0	100.1
608.0	89.64
609.0	99.07
610.0	89.13
611.0	92.95
612.0	95.23
613.0	94.47
614.0	84.65
615.0	81.76
616.0	83.68
617.0	74.02
618.0	74.28
619.0	71.26
620.0	72.73
621.0	72.03
622.0	62.97
623.0	56.22
624.0	63.27
625.0	61.60
626.0	58.73
627.0	53.79
628.0	57.57
629.0	52.98
630.0	54.45
631.0	52.85
632.0	43.48
633.0	48.14
634.0	49.07
635.0	46.23
636.0	41.00
637.0	39.49
638.0	37.91
639.0	39.13
640.0	42.06
641.0	38.22
642.0	31.15
643.0	37.17
644.0	37.71
645.0	27.23
646.0	27.60
647.0	27.84
648.0	26.24
649.0	29.18
650.0	19.26
651.0	24.94
652.0	23.83
653.0	22.44
654.0	24.99
655.0	20.32
656.0	19.39
657.0	24.93
658.0	22.03
659.0	18.07
660.0	16.89
661.0	18.75
662.0	17.48
663.0	19.10
664.0	13.14
665.0	20.50
666.0	18.00
667.0	17.40
668.0	18.87
669.0	20.73
670.0	14.87
671.0	12.47
672.0	13.12
673.0	11.80
674.0	15.48
675.0	13.71
676.0	10.74
677.0	15.03
678.0	11.28
679.0	14.05
680.0	13.34
681.0	11.30
682.0	11.65
683.0	12.02
684.0	9.333
685.0	12.02
686.0	9.968
687.0	12.60
688.0	9.219
689.0	8.201
690.0	9.565
691.0	8.574
692.0	7.330
693.0	8.539
694.0	7.354
695.0	6.167
696.0	9.720
697.0	6.647
698.0	8.954
699.0	5.423
700.0	4.078
701.0	4.975
702.0	4.335
703.0	7.211
704.0	4.375
705.0	5.174
706.0	4.761
707.0	9.213
708.0	5.028
709.0	4.230
710.0	6.974
711.0	4.017
712.0	6.888
713.0	3.862
714.0	3.083
715.0	5.263
716.0	5.523
717.0	3.496
718.0	2.441
719.0	5.232
720.0	6.226
721.0	4.142
722.0	4.533
723.0	3.466
724.0	7.699
725.0	5.598
726.0	7.059
727.0	3.066
728.0	4.140
729.0	4.238
730.0	5.465
731.0	4.954
732.0	5.232
733.0	4.128
734.0	3.122
735.0	2.427
736.0	2.892
737.0	2.236
738.0	4.137
739.0	4.013
740.0	6.668
741.0	6.141
742.0	2.231
743.0	3.642
744.0	2.590
745.0	4.314
746.0	2.244
747.0	0.821
748.0	3.754
749.0	2.314
750.0	2.439
751.0	2.860
752.0	1.575
753.0	3.153
754.0	2.497
755.0	3.024
756.0	4.680
757.0	4.512
758.0	2.971
759.0	5.217
760.0	3.503
761.0	4.020
762.0	3.621
763.0	2.185
764.0	3.050
765.0	3.916
766.0	4.174
767.0	4.118
768.0	3.136
769.0	1.194
770.0	4.322
771.0	2.770
772.0	3.215
773.0	5.694
774.0	3.636
775.0	2.937
776.0	5.045
777.0	4.352
778.0	1.694
779.0	2.151
780.0	2.536

Sample:	'wa-17(EM)
File name:	50.FDS
Run Date:	'15:40:53, 07/11/2024
Operator:	WXH
Comment:	'

Instrument
Model:	F-4600 FL Spectrophotometer
Serial Number:	3080-002
ROM Version:	5J24000 02

Instrument Parameters
Measurement type:	Wavelength scan
Scan mode:	Emission
Data mode:	Fluorescence
EX WL:	460.0 nm
EM  Start WL:	480.0 nm
EM  End WL:	780.0 nm
Scan speed:	1200 nm/min
Delay:	0.0 s
EX Slit:	2.5 nm
EM Slit:	2.5 nm
PMT Voltage:	600 V
Response:	Auto 
Corrected spectra:	Off
Shutter control:	On

Peak integration
Integration method:	Rectangular
Sensitivity:	1
Threshold:	1.000

Peaks
No.	Valley(nm)	Valley(Data)
1	483.8	79.21
2	508.4	366.8
3	514.2	418.9
4	517.8	420.9
5	523.0	428.5
6	525.8	399.8
7	528.2	399.0
8	531.4	394.5
9	533.2	375.7
10	537.0	364.9
11	540.8	351.4
12	543.0	347.7
13	545.4	346.5
14	549.8	325.0
15	552.4	309.0
16	555.4	312.9
17	557.0	307.9
18	562.0	274.1
19	566.4	261.8
20	571.2	217.3
21	575.2	197.7
22	580.6	177.3
23	585.0	164.5
24	589.2	130.8
25	592.6	127.5
26	596.6	114.2
27	600.4	104.6
28	602.8	102.4
29	604.6	93.68
30	607.2	91.88
31	609.6	93.05
32	612.6	86.93
33	619.0	58.60
34	623.4	54.18
35	628.2	47.64
36	631.0	43.89
37	637.8	37.72
38	640.6	33.08
39	645.4	23.42
40	648.6	22.38
41	656.6	19.14
42	658.6	17.15
43	660.2	18.30
44	662.2	13.92
45	666.0	11.61
46	667.8	11.89
47	674.4	10.03
48	678.8	8.786
49	680.2	8.404
50	685.2	8.165
51	687.0	7.376
52	688.8	7.456
53	691.8	7.619
54	694.6	4.226
55	697.6	4.417
56	700.4	4.881
57	702.4	4.935
58	705.0	4.422
59	707.2	3.800
60	710.8	1.626
61	712.6	3.553
62	714.4	3.736
63	720.0	3.805
64	723.8	2.027
65	727.4	1.854
66	729.6	1.501
67	733.4	1.768
68	739.0	2.509
69	744.2	1.275
70	747.4	1.964
71	749.2	1.856
72	751.8	2.464
73	756.6	1.192
74	760.0	0.411
75	764.2	1.679
76	766.4	1.213
77	769.0	0.868
78	770.2	1.104
79	773.0	0.835
80	776.0	-0.324
81	780.0	1.298

Data Points
nm	Data
480.0	97.21
481.0	97.63
482.0	90.87
483.0	92.62
484.0	85.63
485.0	96.73
486.0	101.5
487.0	111.2
488.0	109.0
489.0	109.9
490.0	118.8
491.0	121.1
492.0	126.1
493.0	130.3
494.0	160.2
495.0	165.3
496.0	173.8
497.0	172.5
498.0	205.5
499.0	216.6
500.0	249.5
501.0	250.6
502.0	261.6
503.0	287.0
504.0	304.4
505.0	318.9
506.0	324.1
507.0	352.7
508.0	385.9
509.0	371.0
510.0	385.5
511.0	393.5
512.0	419.9
513.0	435.9
514.0	420.2
515.0	456.4
516.0	435.1
517.0	426.0
518.0	436.2
519.0	439.0
520.0	441.3
521.0	436.6
522.0	453.6
523.0	428.5
524.0	433.2
525.0	422.0
526.0	410.9
527.0	418.5
528.0	405.9
529.0	423.0
530.0	409.0
531.0	405.3
532.0	400.3
533.0	380.7
534.0	378.3
535.0	393.4
536.0	396.8
537.0	364.9
538.0	391.9
539.0	372.1
540.0	359.7
541.0	359.9
542.0	362.9
543.0	347.7
544.0	355.8
545.0	362.5
546.0	358.6
547.0	354.0
548.0	325.8
549.0	342.2
550.0	331.6
551.0	337.3
552.0	314.1
553.0	335.6
554.0	335.6
555.0	327.2
556.0	323.9
557.0	307.9
558.0	323.6
559.0	313.9
560.0	314.7
561.0	304.6
562.0	274.1
563.0	290.4
564.0	297.1
565.0	279.8
566.0	270.3
567.0	277.5
568.0	255.6
569.0	243.1
570.0	252.0
571.0	234.1
572.0	234.6
573.0	237.4
574.0	222.5
575.0	211.0
576.0	199.5
577.0	214.2
578.0	198.4
579.0	195.8
580.0	191.4
581.0	180.8
582.0	186.5
583.0	175.4
584.0	173.7
585.0	164.5
586.0	164.0
587.0	157.1
588.0	148.3
589.0	138.4
590.0	156.9
591.0	145.6
592.0	137.2
593.0	135.9
594.0	142.1
595.0	133.7
596.0	133.9
597.0	115.2
598.0	134.8
599.0	117.6
600.0	106.2
601.0	107.1
602.0	111.4
603.0	105.5
604.0	107.4
605.0	96.71
606.0	104.7
607.0	96.00
608.0	107.5
609.0	99.63
610.0	99.61
611.0	97.34
612.0	92.54
613.0	93.43
614.0	88.13
615.0	83.52
616.0	79.26
617.0	80.40
618.0	76.27
619.0	58.60
620.0	75.63
621.0	75.59
622.0	66.76
623.0	56.55
624.0	67.04
625.0	67.47
626.0	56.14
627.0	57.34
628.0	49.39
629.0	57.82
630.0	48.00
631.0	43.89
632.0	49.23
633.0	54.63
634.0	47.88
635.0	42.75
636.0	37.92
637.0	40.98
638.0	41.34
639.0	44.36
640.0	41.22
641.0	37.98
642.0	39.91
643.0	35.18
644.0	37.64
645.0	25.36
646.0	32.64
647.0	26.81
648.0	25.88
649.0	23.05
650.0	30.22
651.0	26.56
652.0	30.25
653.0	28.06
654.0	26.69
655.0	25.58
656.0	24.55
657.0	25.55
658.0	19.10
659.0	20.28
660.0	19.44
661.0	22.08
662.0	14.71
663.0	22.24
664.0	23.13
665.0	16.18
666.0	11.61
667.0	16.47
668.0	13.17
669.0	18.19
670.0	17.41
671.0	15.24
672.0	13.05
673.0	13.94
674.0	12.84
675.0	14.94
676.0	16.61
677.0	16.69
678.0	11.95
679.0	11.45
680.0	9.718
681.0	10.37
682.0	16.04
683.0	12.76
684.0	11.82
685.0	9.175
686.0	13.06
687.0	7.376
688.0	9.490
689.0	8.634
690.0	8.925
691.0	6.613
692.0	9.145
693.0	9.483
694.0	10.29
695.0	10.39
696.0	6.487
697.0	5.175
698.0	8.696
699.0	5.993
700.0	7.837
701.0	7.620
702.0	6.065
703.0	7.489
704.0	7.118
705.0	4.422
706.0	6.080
707.0	5.373
708.0	10.47
709.0	5.747
710.0	4.185
711.0	4.042
712.0	4.966
713.0	4.910
714.0	4.432
715.0	5.220
716.0	6.784
717.0	7.546
718.0	7.650
719.0	7.730
720.0	3.805
721.0	4.007
722.0	7.247
723.0	5.681
724.0	2.620
725.0	3.404
726.0	5.898
727.0	2.310
728.0	4.532
729.0	4.224
730.0	3.531
731.0	4.387
732.0	4.339
733.0	3.359
734.0	2.408
735.0	3.019
736.0	4.232
737.0	3.385
738.0	3.793
739.0	2.509
740.0	4.957
741.0	4.361
742.0	4.370
743.0	3.368
744.0	2.286
745.0	3.117
746.0	2.168
747.0	2.986
748.0	2.171
749.0	2.821
750.0	4.234
751.0	2.856
752.0	2.817
753.0	2.663
754.0	3.746
755.0	5.364
756.0	3.640
757.0	1.940
758.0	2.954
759.0	2.957
760.0	0.411
761.0	2.674
762.0	1.708
763.0	2.744
764.0	2.018
765.0	2.929
766.0	3.014
767.0	2.154
768.0	2.391
769.0	0.868
770.0	1.623
771.0	2.155
772.0	2.566
773.0	0.835
774.0	1.735
775.0	2.059
776.0	-0.324
777.0	5.887
778.0	3.134
779.0	2.417
780.0	1.298

Sample:	'wa-18(EM)
File name:	50.FDS
Run Date:	'15:41:23, 07/11/2024
Operator:	WXH
Comment:	'

Instrument
Model:	F-4600 FL Spectrophotometer
Serial Number:	3080-002
ROM Version:	5J24000 02

Instrument Parameters
Measurement type:	Wavelength scan
Scan mode:	Emission
Data mode:	Fluorescence
EX WL:	460.0 nm
EM  Start WL:	480.0 nm
EM  End WL:	780.0 nm
Scan speed:	1200 nm/min
Delay:	0.0 s
EX Slit:	2.5 nm
EM Slit:	2.5 nm
PMT Voltage:	600 V
Response:	Auto 
Corrected spectra:	Off
Shutter control:	On

Peak integration
Integration method:	Rectangular
Sensitivity:	1
Threshold:	1.000

Peaks
No.	Valley(nm)	Valley(Data)
1	486.4	92.42
2	518.4	411.6
3	522.4	417.2
4	528.0	387.3
5	531.6	396.9
6	533.2	376.6
7	540.0	350.1
8	546.4	343.3
9	550.4	333.9
10	552.2	327.9
11	565.2	264.2
12	572.8	221.9
13	575.4	197.4
14	577.8	193.9
15	583.4	164.4
16	585.8	151.9
17	592.4	133.1
18	594.4	127.4
19	600.8	96.86
20	603.4	104.0
21	607.4	90.22
22	609.8	88.78
23	611.6	77.52
24	613.8	79.17
25	619.2	64.15
26	622.8	54.80
27	625.4	56.53
28	627.0	50.24
29	629.2	46.75
30	631.0	45.91
31	637.4	29.75
32	641.4	29.23
33	646.0	28.38
34	649.8	20.20
35	654.4	19.84
36	656.8	15.82
37	661.4	12.23
38	670.4	9.971
39	672.2	11.78
40	675.4	10.54
41	679.2	11.66
42	682.6	7.105
43	687.8	5.692
44	690.8	5.263
45	695.8	4.344
46	699.6	2.329
47	701.8	4.877
48	705.8	5.760
49	711.2	2.611
50	713.4	3.073
51	716.2	2.060
52	719.6	3.422
53	721.6	2.216
54	724.8	2.078
55	727.8	3.221
56	730.6	3.344
57	734.2	2.200
58	737.0	0.714
59	739.6	2.836
60	742.0	2.721
61	747.0	0.606
62	750.4	1.054
63	752.2	3.908
64	757.0	1.097
65	760.0	0.571
66	761.8	0.927
67	766.4	-0.027
68	770.2	0.686
69	773.4	1.232
70	775.6	0.451

Data Points
nm	Data
480.0	86.63
481.0	79.87
482.0	104.0
483.0	98.03
484.0	96.08
485.0	109.2
486.0	99.43
487.0	108.7
488.0	116.0
489.0	114.1
490.0	122.2
491.0	128.0
492.0	139.1
493.0	138.8
494.0	154.9
495.0	170.2
496.0	183.5
497.0	198.0
498.0	215.5
499.0	209.6
500.0	244.4
501.0	251.9
502.0	271.2
503.0	308.2
504.0	312.7
505.0	312.5
506.0	333.7
507.0	356.0
508.0	367.0
509.0	367.5
510.0	388.1
511.0	388.2
512.0	402.1
513.0	414.2
514.0	418.8
515.0	436.8
516.0	444.6
517.0	456.1
518.0	412.3
519.0	427.2
520.0	438.9
521.0	421.8
522.0	427.2
523.0	425.8
524.0	439.5
525.0	427.3
526.0	430.2
527.0	428.3
528.0	387.3
529.0	429.4
530.0	409.5
531.0	398.9
532.0	411.7
533.0	380.2
534.0	400.1
535.0	399.4
536.0	382.0
537.0	378.2
538.0	374.5
539.0	359.7
540.0	350.1
541.0	355.1
542.0	372.2
543.0	390.5
544.0	367.0
545.0	352.9
546.0	346.5
547.0	370.9
548.0	333.0
549.0	334.7
550.0	334.9
551.0	334.4
552.0	334.5
553.0	340.0
554.0	340.6
555.0	334.4
556.0	331.2
557.0	317.4
558.0	321.5
559.0	312.7
560.0	315.9
561.0	289.9
562.0	309.2
563.0	294.5
564.0	288.2
565.0	273.1
566.0	278.5
567.0	281.6
568.0	261.0
569.0	266.8
570.0	238.0
571.0	239.4
572.0	234.9
573.0	230.5
574.0	221.5
575.0	206.7
576.0	207.9
577.0	216.8
578.0	194.1
579.0	205.8
580.0	214.8
581.0	187.0
582.0	187.8
583.0	167.1
584.0	174.3
585.0	166.8
586.0	158.1
587.0	155.6
588.0	167.9
589.0	162.4
590.0	151.0
591.0	138.5
592.0	134.7
593.0	139.7
594.0	129.5
595.0	135.3
596.0	138.3
597.0	133.9
598.0	124.8
599.0	127.8
600.0	112.8
601.0	99.10
602.0	105.3
603.0	108.4
604.0	108.2
605.0	103.3
606.0	98.94
607.0	95.18
608.0	96.01
609.0	94.36
610.0	94.99
611.0	94.36
612.0	85.64
613.0	94.45
614.0	79.22
615.0	83.44
616.0	75.42
617.0	79.91
618.0	75.17
619.0	65.46
620.0	65.51
621.0	74.72
622.0	67.15
623.0	58.29
624.0	60.62
625.0	57.73
626.0	62.36
627.0	50.24
628.0	56.15
629.0	51.09
630.0	57.53
631.0	45.91
632.0	53.05
633.0	49.10
634.0	52.46
635.0	39.33
636.0	34.59
637.0	34.86
638.0	35.30
639.0	41.22
640.0	41.18
641.0	34.94
642.0	38.09
643.0	31.57
644.0	27.60
645.0	30.04
646.0	28.38
647.0	31.28
648.0	26.13
649.0	25.94
650.0	21.94
651.0	27.07
652.0	24.42
653.0	28.11
654.0	22.79
655.0	22.88
656.0	24.01
657.0	21.87
658.0	24.95
659.0	17.92
660.0	22.72
661.0	16.53
662.0	17.12
663.0	18.19
664.0	20.70
665.0	20.69
666.0	18.86
667.0	20.96
668.0	13.06
669.0	15.99
670.0	11.92
671.0	16.07
672.0	13.05
673.0	16.29
674.0	14.81
675.0	11.42
676.0	11.96
677.0	12.36
678.0	12.68
679.0	12.77
680.0	15.78
681.0	16.51
682.0	15.15
683.0	9.073
684.0	12.95
685.0	11.10
686.0	12.23
687.0	7.114
688.0	5.989
689.0	8.146
690.0	8.459
691.0	5.756
692.0	8.936
693.0	10.10
694.0	6.239
695.0	5.196
696.0	6.485
697.0	7.824
698.0	6.232
699.0	2.370
700.0	5.390
701.0	5.594
702.0	5.051
703.0	8.159
704.0	6.095
705.0	6.131
706.0	5.883
707.0	14.04
708.0	8.034
709.0	4.843
710.0	4.900
711.0	3.796
712.0	5.589
713.0	4.365
714.0	5.810
715.0	4.500
716.0	2.946
717.0	3.220
718.0	6.068
719.0	5.034
720.0	5.445
721.0	2.998
722.0	3.198
723.0	6.359
724.0	7.178
725.0	4.183
726.0	4.217
727.0	6.615
728.0	3.491
729.0	5.813
730.0	3.653
731.0	7.310
732.0	4.540
733.0	2.904
734.0	3.964
735.0	3.694
736.0	3.905
737.0	0.714
738.0	4.333
739.0	4.290
740.0	3.445
741.0	4.182
742.0	2.721
743.0	2.940
744.0	3.516
745.0	4.232
746.0	3.099
747.0	0.606
748.0	6.360
749.0	4.436
750.0	2.840
751.0	3.804
752.0	5.848
753.0	5.091
754.0	4.119
755.0	2.249
756.0	2.982
757.0	1.097
758.0	1.980
759.0	3.911
760.0	0.571
761.0	3.134
762.0	1.546
763.0	3.716
764.0	3.586
765.0	3.543
766.0	1.218
767.0	1.380
768.0	2.171
769.0	2.509
770.0	1.804
771.0	3.845
772.0	2.425
773.0	2.668
774.0	2.905
775.0	2.746
776.0	1.879
777.0	3.462
778.0	3.629
779.0	4.742
780.0	6.074

Sample:	'wa-19(EM)
File name:	50.FDS
Run Date:	'15:41:53, 07/11/2024
Operator:	WXH
Comment:	'

Instrument
Model:	F-4600 FL Spectrophotometer
Serial Number:	3080-002
ROM Version:	5J24000 02

Instrument Parameters
Measurement type:	Wavelength scan
Scan mode:	Emission
Data mode:	Fluorescence
EX WL:	460.0 nm
EM  Start WL:	480.0 nm
EM  End WL:	780.0 nm
Scan speed:	1200 nm/min
Delay:	0.0 s
EX Slit:	2.5 nm
EM Slit:	2.5 nm
PMT Voltage:	600 V
Response:	Auto 
Corrected spectra:	Off
Shutter control:	On

Peak integration
Integration method:	Rectangular
Sensitivity:	1
Threshold:	1.000

Peaks
No.	Valley(nm)	Valley(Data)
1	486.6	93.80
2	502.2	256.3
3	507.2	330.1
4	513.6	402.0
5	519.0	426.8
6	524.6	405.1
7	526.4	399.4
8	528.6	384.8
9	532.8	380.6
10	536.4	358.7
11	542.0	348.5
12	547.0	332.7
13	550.2	344.9
14	555.4	307.7
15	561.0	296.3
16	564.8	274.7
17	569.8	234.6
18	573.6	220.1
19	578.4	187.3
20	582.8	175.1
21	587.0	146.9
22	594.4	122.1
23	596.8	123.2
24	598.8	118.7
25	601.8	98.25
26	603.2	101.3
27	608.2	84.27
28	613.4	79.49
29	616.4	71.34
30	629.4	43.34
31	632.8	38.74
32	635.4	43.04
33	638.6	34.55
34	642.6	29.81
35	647.0	28.44
36	648.8	24.67
37	651.8	22.02
38	654.2	22.52
39	657.2	21.50
40	659.2	18.51
41	661.8	14.81
42	667.4	11.45
43	669.0	12.24
44	674.2	9.821
45	678.0	8.451
46	680.4	5.832
47	682.4	5.376
48	684.4	6.523
49	686.6	9.679
50	691.0	3.178
51	692.8	5.282
52	694.4	5.544
53	695.4	6.366
54	698.2	2.789
55	704.0	3.292
56	706.8	5.900
57	710.0	2.471
58	713.0	3.091
59	715.4	2.068
60	720.2	2.342
61	723.0	2.208
62	724.6	1.754
63	731.0	1.525
64	733.8	2.647
65	738.8	0.598
66	740.6	3.192
67	744.8	1.179
68	746.4	2.055
69	752.4	0.038
70	755.8	1.399
71	758.6	2.197
72	762.8	1.445
73	765.4	0.317
74	770.4	3.222
75	772.0	0.894
76	776.2	1.325
77	780.0	0.813

Data Points
nm	Data
480.0	85.00
481.0	88.46
482.0	86.93
483.0	82.59
484.0	95.83
485.0	98.44
486.0	96.27
487.0	95.88
488.0	103.9
489.0	107.0
490.0	109.8
491.0	124.9
492.0	130.3
493.0	143.5
494.0	136.5
495.0	163.4
496.0	178.6
497.0	187.1
498.0	210.3
499.0	221.8
500.0	242.9
501.0	266.1
502.0	258.3
503.0	273.1
504.0	281.0
505.0	313.3
506.0	352.2
507.0	331.9
508.0	378.8
509.0	372.9
510.0	390.1
511.0	414.4
512.0	427.3
513.0	432.4
514.0	418.7
515.0	424.3
516.0	437.8
517.0	452.6
518.0	432.5
519.0	426.8
520.0	426.8
521.0	438.3
522.0	460.9
523.0	455.3
524.0	426.9
525.0	429.2
526.0	419.8
527.0	434.9
528.0	416.4
529.0	411.6
530.0	408.5
531.0	410.6
532.0	387.5
533.0	401.2
534.0	407.2
535.0	403.3
536.0	377.9
537.0	374.2
538.0	374.9
539.0	378.5
540.0	373.8
541.0	363.2
542.0	348.5
543.0	358.7
544.0	363.1
545.0	354.4
546.0	359.0
547.0	332.7
548.0	357.7
549.0	346.6
550.0	345.5
551.0	361.0
552.0	330.3
553.0	331.5
554.0	322.5
555.0	322.1
556.0	320.9
557.0	325.7
558.0	323.8
559.0	305.2
560.0	305.8
561.0	296.3
562.0	298.2
563.0	296.0
564.0	290.2
565.0	278.9
566.0	269.7
567.0	265.5
568.0	255.0
569.0	260.1
570.0	240.5
571.0	236.0
572.0	225.1
573.0	221.8
574.0	237.3
575.0	210.2
576.0	208.9
577.0	202.1
578.0	200.6
579.0	200.9
580.0	193.8
581.0	188.2
582.0	185.9
583.0	175.7
584.0	176.6
585.0	162.3
586.0	158.4
587.0	146.9
588.0	149.0
589.0	150.0
590.0	151.5
591.0	142.6
592.0	144.9
593.0	143.8
594.0	131.9
595.0	122.3
596.0	134.2
597.0	125.5
598.0	125.6
599.0	121.5
600.0	126.3
601.0	122.3
602.0	107.4
603.0	108.6
604.0	110.7
605.0	112.2
606.0	110.0
607.0	101.7
608.0	94.99
609.0	101.5
610.0	95.73
611.0	87.48
612.0	90.92
613.0	80.45
614.0	83.10
615.0	91.28
616.0	78.39
617.0	78.03
618.0	73.57
619.0	72.42
620.0	66.71
621.0	60.73
622.0	62.54
623.0	62.46
624.0	64.38
625.0	61.50
626.0	60.25
627.0	58.52
628.0	55.03
629.0	43.93
630.0	51.22
631.0	47.50
632.0	40.67
633.0	43.12
634.0	50.30
635.0	45.53
636.0	51.69
637.0	43.81
638.0	39.73
639.0	35.90
640.0	46.14
641.0	37.07
642.0	33.30
643.0	31.66
644.0	34.11
645.0	38.88
646.0	34.51
647.0	28.44
648.0	33.99
649.0	25.85
650.0	30.07
651.0	31.52
652.0	24.35
653.0	28.08
654.0	23.06
655.0	26.19
656.0	24.88
657.0	23.04
658.0	25.32
659.0	21.53
660.0	24.01
661.0	22.74
662.0	17.74
663.0	18.15
664.0	17.78
665.0	18.63
666.0	17.32
667.0	16.69
668.0	14.64
669.0	12.24
670.0	18.76
671.0	16.90
672.0	16.11
673.0	10.20
674.0	13.09
675.0	14.95
676.0	11.32
677.0	12.57
678.0	8.451
679.0	13.59
680.0	8.851
681.0	11.86
682.0	5.746
683.0	9.394
684.0	6.824
685.0	11.58
686.0	9.789
687.0	11.42
688.0	13.66
689.0	8.780
690.0	5.075
691.0	3.178
692.0	10.64
693.0	5.889
694.0	6.469
695.0	7.843
696.0	7.255
697.0	6.151
698.0	3.814
699.0	7.970
700.0	8.626
701.0	8.498
702.0	6.726
703.0	9.040
704.0	3.292
705.0	11.91
706.0	6.160
707.0	9.332
708.0	8.619
709.0	8.492
710.0	2.471
711.0	4.029
712.0	4.814
713.0	3.091
714.0	3.964
715.0	2.974
716.0	3.843
717.0	2.478
718.0	6.139
719.0	5.502
720.0	3.559
721.0	5.287
722.0	4.250
723.0	2.208
724.0	5.319
725.0	3.361
726.0	1.785
727.0	4.189
728.0	5.043
729.0	5.716
730.0	3.741
731.0	1.525
732.0	4.577
733.0	4.071
734.0	3.329
735.0	4.299
736.0	5.312
737.0	7.535
738.0	3.977
739.0	1.987
740.0	3.884
741.0	3.589
742.0	4.358
743.0	3.500
744.0	4.681
745.0	3.882
746.0	2.723
747.0	5.954
748.0	6.120
749.0	2.949
750.0	3.896
751.0	1.392
752.0	1.098
753.0	1.751
754.0	4.484
755.0	4.036
756.0	2.334
757.0	2.799
758.0	4.653
759.0	3.233
760.0	3.856
761.0	3.189
762.0	3.112
763.0	1.925
764.0	3.326
765.0	1.878
766.0	3.679
767.0	2.845
768.0	3.981
769.0	5.051
770.0	3.403
771.0	3.833
772.0	0.894
773.0	3.335
774.0	4.637
775.0	2.249
776.0	1.589
777.0	3.265
778.0	3.650
779.0	2.330
780.0	0.813

Sample:	'wa-20(EM)
File name:	50.FDS
Run Date:	'15:42:24, 07/11/2024
Operator:	WXH
Comment:	'

Instrument
Model:	F-4600 FL Spectrophotometer
Serial Number:	3080-002
ROM Version:	5J24000 02

Instrument Parameters
Measurement type:	Wavelength scan
Scan mode:	Emission
Data mode:	Fluorescence
EX WL:	460.0 nm
EM  Start WL:	480.0 nm
EM  End WL:	780.0 nm
Scan speed:	1200 nm/min
Delay:	0.0 s
EX Slit:	2.5 nm
EM Slit:	2.5 nm
PMT Voltage:	600 V
Response:	Auto 
Corrected spectra:	Off
Shutter control:	On

Peak integration
Integration method:	Rectangular
Sensitivity:	1
Threshold:	1.000

Peaks
No.	Valley(nm)	Valley(Data)
1	483.4	77.60
2	487.6	91.14
3	514.8	403.2
4	518.4	406.5
5	524.0	408.7
6	529.0	384.4
7	531.4	376.0
8	536.6	375.0
9	538.2	356.0
10	542.6	348.6
11	546.0	331.0
12	552.2	325.2
13	553.4	318.5
14	562.6	277.7
15	563.8	267.9
16	568.0	242.4
17	575.0	206.4
18	580.4	185.8
19	583.0	173.1
20	588.2	142.0
21	593.0	132.8
22	598.4	111.5
23	600.8	106.3
24	605.8	93.10
25	608.4	92.79
26	611.2	84.93
27	613.2	77.56
28	616.6	75.14
29	618.2	68.54
30	622.2	62.53
31	624.0	60.92
32	628.2	46.56
33	630.0	48.89
34	632.2	42.16
35	637.0	36.48
36	644.6	27.11
37	648.2	24.56
38	651.4	19.97
39	653.0	23.96
40	656.8	20.37
41	659.8	17.04
42	661.6	16.59
43	665.8	13.18
44	668.2	10.62
45	674.8	8.375
46	678.8	9.743
47	682.0	8.053
48	685.8	8.468
49	687.0	5.944
50	690.4	5.602
51	693.6	6.671
52	695.8	4.902
53	700.2	3.608
54	703.2	4.305
55	705.2	3.639
56	708.6	3.882
57	712.8	2.114
58	717.2	3.088
59	721.8	3.762
60	724.0	3.209
61	727.2	3.742
62	729.6	2.248
63	731.8	2.326
64	734.4	4.063
65	736.2	2.562
66	741.0	0.677
67	749.0	0.366
68	754.0	1.909
69	756.8	2.044
70	757.8	2.282
71	760.0	1.796
72	764.4	0.673
73	769.6	0.699
74	772.6	1.213
75	775.2	2.597
76	780.0	1.732

Data Points
nm	Data
480.0	75.19
481.0	84.34
482.0	88.66
483.0	83.35
484.0	83.41
485.0	102.7
486.0	100.9
487.0	92.88
488.0	97.34
489.0	109.6
490.0	118.7
491.0	117.6
492.0	140.3
493.0	139.5
494.0	152.1
495.0	160.6
496.0	178.1
497.0	185.6
498.0	204.4
499.0	214.3
500.0	247.1
501.0	267.2
502.0	265.0
503.0	285.6
504.0	307.2
505.0	303.8
506.0	334.1
507.0	349.9
508.0	358.8
509.0	393.5
510.0	395.7
511.0	399.0
512.0	411.2
513.0	421.7
514.0	436.4
515.0	415.6
516.0	436.3
517.0	440.4
518.0	446.6
519.0	433.5
520.0	423.8
521.0	436.0
522.0	424.1
523.0	440.5
524.0	408.7
525.0	428.8
526.0	422.1
527.0	438.6
528.0	400.0
529.0	384.4
530.0	410.4
531.0	391.9
532.0	379.6
533.0	391.9
534.0	400.6
535.0	395.7
536.0	390.2
537.0	378.8
538.0	374.4
539.0	366.8
540.0	379.5
541.0	368.6
542.0	362.4
543.0	371.5
544.0	362.0
545.0	343.4
546.0	331.0
547.0	354.2
548.0	354.0
549.0	349.6
550.0	341.9
551.0	328.8
552.0	328.5
553.0	334.7
554.0	323.4
555.0	336.9
556.0	315.1
557.0	309.2
558.0	320.4
559.0	302.2
560.0	291.2
561.0	290.0
562.0	278.9
563.0	287.4
564.0	271.9
565.0	282.2
566.0	259.3
567.0	270.9
568.0	242.4
569.0	260.3
570.0	245.6
571.0	231.6
572.0	224.2
573.0	222.3
574.0	207.3
575.0	206.4
576.0	221.6
577.0	218.1
578.0	218.1
579.0	201.6
580.0	195.6
581.0	192.0
582.0	190.6
583.0	173.1
584.0	170.7
585.0	168.2
586.0	166.4
587.0	142.8
588.0	145.8
589.0	159.4
590.0	158.8
591.0	147.7
592.0	147.4
593.0	132.8
594.0	144.9
595.0	139.8
596.0	132.4
597.0	127.5
598.0	121.5
599.0	131.4
600.0	125.0
601.0	109.5
602.0	120.2
603.0	123.1
604.0	110.6
605.0	105.8
606.0	94.90
607.0	97.52
608.0	104.8
609.0	103.6
610.0	94.91
611.0	85.21
612.0	93.26
613.0	77.85
614.0	85.73
615.0	82.87
616.0	79.29
617.0	88.21
618.0	70.07
619.0	75.25
620.0	75.02
621.0	66.87
622.0	62.63
623.0	66.43
624.0	60.92
625.0	71.17
626.0	60.38
627.0	62.19
628.0	52.32
629.0	55.18
630.0	48.89
631.0	53.43
632.0	44.19
633.0	45.90
634.0	42.78
635.0	42.80
636.0	41.71
637.0	36.48
638.0	42.98
639.0	45.30
640.0	45.04
641.0	38.30
642.0	38.00
643.0	34.81
644.0	27.73
645.0	31.38
646.0	33.28
647.0	27.57
648.0	26.81
649.0	30.82
650.0	36.79
651.0	24.50
652.0	24.37
653.0	23.96
654.0	26.89
655.0	32.20
656.0	23.27
657.0	27.80
658.0	19.13
659.0	19.84
660.0	18.77
661.0	19.47
662.0	18.26
663.0	21.39
664.0	18.92
665.0	19.80
666.0	13.98
667.0	16.82
668.0	12.83
669.0	12.10
670.0	14.09
671.0	15.23
672.0	16.13
673.0	12.36
674.0	8.983
675.0	10.16
676.0	11.20
677.0	13.09
678.0	12.28
679.0	11.25
680.0	14.66
681.0	9.753
682.0	8.053
683.0	9.749
684.0	10.95
685.0	9.720
686.0	14.86
687.0	5.944
688.0	8.329
689.0	9.292
690.0	6.919
691.0	7.301
692.0	6.560
693.0	8.026
694.0	10.49
695.0	5.944
696.0	6.190
697.0	6.207
698.0	10.01
699.0	8.035
700.0	5.633
701.0	7.043
702.0	6.432
703.0	4.676
704.0	7.653
705.0	5.215
706.0	6.113
707.0	6.955
708.0	4.510
709.0	7.478
710.0	7.662
711.0	5.100
712.0	6.311
713.0	3.663
714.0	4.491
715.0	7.147
716.0	5.044
717.0	3.899
718.0	7.521
719.0	8.061
720.0	5.372
721.0	4.312
722.0	4.610
723.0	5.326
724.0	3.209
725.0	7.715
726.0	5.019
727.0	3.764
728.0	4.846
729.0	3.399
730.0	3.479
731.0	3.911
732.0	3.364
733.0	6.174
734.0	4.862
735.0	5.413
736.0	3.432
737.0	2.875
738.0	4.573
739.0	4.062
740.0	4.203
741.0	0.677
742.0	3.296
743.0	2.249
744.0	2.453
745.0	3.780
746.0	6.729
747.0	1.641
748.0	0.924
749.0	0.366
750.0	1.267
751.0	6.021
752.0	4.357
753.0	2.743
754.0	1.909
755.0	3.653
756.0	2.899
757.0	5.095
758.0	2.893
759.0	2.874
760.0	1.796
761.0	4.571
762.0	2.831
763.0	3.751
764.0	1.615
765.0	1.739
766.0	5.658
767.0	3.547
768.0	3.085
769.0	3.714
770.0	2.375
771.0	5.434
772.0	2.373
773.0	1.713
774.0	5.249
775.0	2.957
776.0	4.066
777.0	2.126
778.0	1.202
779.0	3.864
780.0	1.732

